Ant32 Data File V1.0
Date=21/03/2022
Time=09:45:38
Operator=Cyril
Title=irid
Remarks=Freq. = 1,627 GHz
ScanAxis=Theta
StepAxis=Phi : 0 deg
StepPosition=0
StepUnit=deg
FreqValue=1.627000
RecordIncrement=1
XyzImgAxis=0
XyzImgLabel=0
Abscissa=deg
Ordinate=dBi
Data#1
-180.00 2.361
-179.00 2.330
-178.00 2.343
-177.00 2.229
-176.00 2.154
-175.00 2.051
-174.00 1.916
-173.00 1.814
-172.00 1.673
-171.00 1.514
-170.00 1.357
-169.00 1.095
-168.00 0.947
-167.00 0.690
-166.00 0.461
-165.00 0.202
-164.00 -0.073
-163.00 -0.331
-162.00 -0.667
-161.00 -1.046
-160.00 -1.343
-159.00 -1.696
-158.00 -2.229
-157.00 -2.597
-156.00 -3.004
-155.00 -3.452
-154.00 -4.034
-153.00 -4.400
-152.00 -5.006
-151.00 -5.579
-150.00 -5.987
-149.00 -6.908
-148.00 -7.324
-147.00 -7.848
-146.00 -8.194
-145.00 -8.830
-144.00 -9.147
-143.00 -9.496
-142.00 -9.656
-141.00 -9.921
-140.00 -9.942
-139.00 -9.875
-138.00 -9.652
-137.00 -9.268
-136.00 -9.316
-135.00 -9.100
-134.00 -8.981
-133.00 -8.704
-132.00 -8.543
-131.00 -8.344
-130.00 -8.306
-129.00 -8.187
-128.00 -8.154
-127.00 -8.067
-126.00 -8.219
-125.00 -8.304
-124.00 -8.547
-123.00 -8.414
-122.00 -8.987
-121.00 -8.747
-120.00 -9.133
-119.00 -9.179
-118.00 -9.338
-117.00 -9.528
-116.00 -9.874
-115.00 -10.070
-114.00 -10.123
-113.00 -10.471
-112.00 -10.427
-111.00 -10.296
-110.00 -10.546
-109.00 -10.309
-108.00 -10.005
-107.00 -10.226
-106.00 -10.153
-105.00 -9.960
-104.00 -9.707
-103.00 -9.356
-102.00 -8.996
-101.00 -9.068
-100.00 -8.623
-99.00 -8.711
-98.00 -8.547
-97.00 -8.332
-96.00 -8.171
-95.00 -8.604
-94.00 -8.471
-93.00 -8.466
-92.00 -8.363
-91.00 -8.471
-90.00 -8.778
-89.00 -8.831
-88.00 -8.930
-87.00 -9.194
-86.00 -9.254
-85.00 -9.514
-84.00 -9.890
-83.00 -10.137
-82.00 -10.303
-81.00 -10.419
-80.00 -10.910
-79.00 -11.039
-78.00 -11.106
-77.00 -11.055
-76.00 -11.094
-75.00 -10.854
-74.00 -10.927
-73.00 -10.605
-72.00 -10.482
-71.00 -10.311
-70.00 -9.991
-69.00 -9.828
-68.00 -9.570
-67.00 -9.150
-66.00 -8.655
-65.00 -8.460
-64.00 -8.261
-63.00 -8.043
-62.00 -7.895
-61.00 -7.632
-60.00 -7.432
-59.00 -7.335
-58.00 -7.169
-57.00 -7.191
-56.00 -7.120
-55.00 -6.914
-54.00 -6.919
-53.00 -6.826
-52.00 -6.794
-51.00 -6.843
-50.00 -7.121
-49.00 -6.968
-48.00 -6.996
-47.00 -7.018
-46.00 -7.178
-45.00 -7.095
-44.00 -7.327
-43.00 -7.625
-42.00 -7.768
-41.00 -7.772
-40.00 -8.084
-39.00 -8.001
-38.00 -8.127
-37.00 -8.290
-36.00 -8.529
-35.00 -8.572
-34.00 -8.814
-33.00 -8.781
-32.00 -8.973
-31.00 -9.198
-30.00 -9.125
-29.00 -9.144
-28.00 -9.205
-27.00 -9.458
-26.00 -9.282
-25.00 -9.161
-24.00 -9.613
-23.00 -9.523
-22.00 -9.275
-21.00 -9.310
-20.00 -9.493
-19.00 -9.204
-18.00 -9.346
-17.00 -9.298
-16.00 -9.010
-15.00 -9.118
-14.00 -8.902
-13.00 -8.985
-12.00 -8.859
-11.00 -8.864
-10.00 -8.727
-9.00 -8.821
-8.00 -8.782
-7.00 -8.825
-6.00 -8.589
-5.00 -8.506
-4.00 -8.331
-3.00 -8.610
-2.00 -8.486
-1.00 -8.636
0.00 -8.537
1.00 -8.506
2.00 -8.605
3.00 -8.439
4.00 -8.657
5.00 -8.726
6.00 -8.679
7.00 -8.644
8.00 -8.717
9.00 -8.545
10.00 -8.634
11.00 -8.923
12.00 -8.777
13.00 -8.675
14.00 -8.812
15.00 -8.917
16.00 -8.789
17.00 -8.924
18.00 -8.863
19.00 -9.063
20.00 -9.042
21.00 -9.100
22.00 -8.898
23.00 -8.874
24.00 -8.862
25.00 -8.893
26.00 -9.090
27.00 -9.027
28.00 -9.111
29.00 -9.036
30.00 -8.978
31.00 -8.725
32.00 -8.922
33.00 -8.675
34.00 -8.734
35.00 -8.810
36.00 -9.022
37.00 -8.896
38.00 -8.791
39.00 -8.855
40.00 -8.896
41.00 -9.038
42.00 -8.941
43.00 -9.120
44.00 -8.988
45.00 -9.068
46.00 -9.138
47.00 -9.176
48.00 -9.418
49.00 -9.509
50.00 -9.262
51.00 -9.410
52.00 -9.568
53.00 -9.558
54.00 -9.544
55.00 -9.666
56.00 -9.866
57.00 -9.980
58.00 -10.138
59.00 -10.260
60.00 -10.178
61.00 -10.270
62.00 -10.329
63.00 -10.384
64.00 -10.297
65.00 -10.300
66.00 -10.185
67.00 -9.981
68.00 -9.933
69.00 -9.682
70.00 -9.546
71.00 -9.252
72.00 -8.979
73.00 -8.663
74.00 -8.499
75.00 -8.216
76.00 -8.115
77.00 -7.659
78.00 -7.406
79.00 -7.182
80.00 -7.081
81.00 -6.922
82.00 -6.762
83.00 -6.642
84.00 -6.471
85.00 -6.503
86.00 -6.382
87.00 -6.402
88.00 -6.331
89.00 -6.332
90.00 -6.250
91.00 -6.272
92.00 -6.141
93.00 -6.085
94.00 -6.108
95.00 -5.982
96.00 -5.776
97.00 -5.717
98.00 -5.543
99.00 -5.340
100.00 -5.153
101.00 -4.970
102.00 -4.748
103.00 -4.497
104.00 -4.322
105.00 -3.982
106.00 -3.790
107.00 -3.525
108.00 -3.378
109.00 -3.135
110.00 -2.904
111.00 -2.734
112.00 -2.522
113.00 -2.465
114.00 -2.343
115.00 -2.221
116.00 -2.226
117.00 -2.206
118.00 -2.137
119.00 -2.240
120.00 -2.196
121.00 -2.352
122.00 -2.424
123.00 -2.614
124.00 -2.762
125.00 -3.009
126.00 -3.179
127.00 -3.481
128.00 -3.801
129.00 -4.156
130.00 -4.477
131.00 -4.921
132.00 -5.506
133.00 -5.977
134.00 -6.432
135.00 -6.867
136.00 -7.418
137.00 -8.085
138.00 -8.363
139.00 -8.609
140.00 -8.779
141.00 -8.707
142.00 -8.396
143.00 -7.918
144.00 -7.317
145.00 -6.812
146.00 -6.209
147.00 -5.560
148.00 -4.938
149.00 -4.368
150.00 -3.740
151.00 -3.212
152.00 -2.573
153.00 -2.226
154.00 -1.742
155.00 -1.334
156.00 -0.885
157.00 -0.466
158.00 -0.211
159.00 0.161
160.00 0.417
161.00 0.682
162.00 0.907
163.00 1.113
164.00 1.337
165.00 1.557
166.00 1.710
167.00 1.823
168.00 1.989
169.00 2.132
170.00 2.175
171.00 2.316
172.00 2.352
173.00 2.419
174.00 2.477
175.00 2.507
176.00 2.554
177.00 2.500
178.00 2.452
179.00 2.468
180.00 2.342
