Ant32 Data File V1.0
Date=21/03/2022
Time=09:49:05
Operator=Cyril
Title=irid
Remarks=Freq. = 1,613 GHz
ScanAxis=Theta
StepAxis=Phi : 90 deg
StepPosition=90
StepUnit=deg
FreqValue=1.613000
RecordIncrement=1
XyzImgAxis=0
XyzImgLabel=0
Abscissa=deg
Ordinate=dBi
Data#1
-180.00 2.557
-179.00 2.462
-178.00 2.432
-177.00 2.282
-176.00 2.263
-175.00 2.224
-174.00 2.110
-173.00 1.940
-172.00 1.892
-171.00 1.689
-170.00 1.524
-169.00 1.239
-168.00 1.155
-167.00 0.909
-166.00 0.632
-165.00 0.404
-164.00 0.155
-163.00 -0.139
-162.00 -0.486
-161.00 -0.766
-160.00 -1.170
-159.00 -1.446
-158.00 -1.991
-157.00 -2.460
-156.00 -3.036
-155.00 -3.457
-154.00 -4.019
-153.00 -4.762
-152.00 -5.366
-151.00 -6.266
-150.00 -7.105
-149.00 -7.847
-148.00 -8.797
-147.00 -9.437
-146.00 -10.605
-145.00 -11.615
-144.00 -13.330
-143.00 -13.761
-142.00 -14.725
-141.00 -15.415
-140.00 -15.618
-139.00 -15.083
-138.00 -15.333
-137.00 -14.401
-136.00 -13.530
-135.00 -12.703
-134.00 -11.765
-133.00 -11.363
-132.00 -10.666
-131.00 -10.326
-130.00 -9.840
-129.00 -9.850
-128.00 -9.351
-127.00 -9.051
-126.00 -9.047
-125.00 -8.655
-124.00 -8.889
-123.00 -8.769
-122.00 -8.864
-121.00 -8.821
-120.00 -9.047
-119.00 -9.340
-118.00 -9.293
-117.00 -9.734
-116.00 -9.948
-115.00 -9.992
-114.00 -10.378
-113.00 -10.454
-112.00 -10.604
-111.00 -11.102
-110.00 -11.365
-109.00 -11.307
-108.00 -11.658
-107.00 -11.966
-106.00 -11.705
-105.00 -11.390
-104.00 -11.288
-103.00 -11.230
-102.00 -11.203
-101.00 -10.451
-100.00 -10.306
-99.00 -10.000
-98.00 -9.877
-97.00 -9.521
-96.00 -9.436
-95.00 -9.023
-94.00 -8.987
-93.00 -8.892
-92.00 -8.744
-91.00 -8.789
-90.00 -8.942
-89.00 -8.781
-88.00 -8.814
-87.00 -8.714
-86.00 -9.281
-85.00 -9.304
-84.00 -9.427
-83.00 -9.502
-82.00 -9.942
-81.00 -10.051
-80.00 -10.515
-79.00 -10.559
-78.00 -11.142
-77.00 -11.372
-76.00 -11.375
-75.00 -11.599
-74.00 -12.002
-73.00 -12.024
-72.00 -12.056
-71.00 -12.324
-70.00 -12.155
-69.00 -12.018
-68.00 -11.976
-67.00 -11.551
-66.00 -11.054
-65.00 -10.980
-64.00 -10.935
-63.00 -10.442
-62.00 -9.845
-61.00 -9.805
-60.00 -9.434
-59.00 -9.289
-58.00 -9.075
-57.00 -8.976
-56.00 -8.714
-55.00 -8.388
-54.00 -8.331
-53.00 -8.138
-52.00 -8.003
-51.00 -8.198
-50.00 -7.913
-49.00 -7.844
-48.00 -7.877
-47.00 -7.966
-46.00 -8.019
-45.00 -8.030
-44.00 -8.036
-43.00 -8.018
-42.00 -8.208
-41.00 -8.294
-40.00 -8.338
-39.00 -8.337
-38.00 -8.610
-37.00 -8.524
-36.00 -8.772
-35.00 -8.713
-34.00 -9.126
-33.00 -9.234
-32.00 -9.105
-31.00 -9.283
-30.00 -9.222
-29.00 -9.461
-28.00 -9.716
-27.00 -9.682
-26.00 -9.878
-25.00 -9.818
-24.00 -9.789
-23.00 -9.953
-22.00 -9.998
-21.00 -10.063
-20.00 -10.061
-19.00 -10.202
-18.00 -10.075
-17.00 -10.149
-16.00 -10.315
-15.00 -10.125
-14.00 -10.007
-13.00 -10.142
-12.00 -10.133
-11.00 -9.657
-10.00 -9.965
-9.00 -9.650
-8.00 -9.709
-7.00 -9.693
-6.00 -9.564
-5.00 -9.636
-4.00 -9.484
-3.00 -9.203
-2.00 -9.354
-1.00 -9.365
0.00 -8.954
1.00 -9.061
2.00 -9.019
3.00 -9.153
4.00 -8.756
5.00 -8.846
6.00 -8.736
7.00 -8.659
8.00 -8.631
9.00 -8.347
10.00 -8.254
11.00 -8.141
12.00 -8.136
13.00 -7.927
14.00 -7.866
15.00 -7.817
16.00 -7.629
17.00 -7.633
18.00 -7.500
19.00 -7.629
20.00 -7.309
21.00 -7.101
22.00 -7.220
23.00 -7.079
24.00 -6.978
25.00 -6.961
26.00 -6.809
27.00 -6.834
28.00 -6.746
29.00 -6.641
30.00 -6.645
31.00 -6.545
32.00 -6.715
33.00 -6.563
34.00 -6.596
35.00 -6.549
36.00 -6.546
37.00 -6.572
38.00 -6.659
39.00 -6.740
40.00 -6.830
41.00 -6.624
42.00 -6.826
43.00 -6.757
44.00 -6.778
45.00 -7.031
46.00 -6.960
47.00 -7.218
48.00 -7.217
49.00 -7.140
50.00 -7.130
51.00 -7.262
52.00 -7.217
53.00 -7.198
54.00 -7.361
55.00 -7.319
56.00 -7.184
57.00 -7.293
58.00 -7.308
59.00 -7.081
60.00 -6.853
61.00 -6.693
62.00 -6.612
63.00 -6.402
64.00 -5.992
65.00 -5.954
66.00 -5.883
67.00 -5.433
68.00 -5.334
69.00 -5.173
70.00 -4.993
71.00 -4.790
72.00 -4.638
73.00 -4.527
74.00 -4.379
75.00 -4.398
76.00 -4.346
77.00 -4.268
78.00 -4.307
79.00 -4.318
80.00 -4.249
81.00 -4.556
82.00 -4.543
83.00 -4.567
84.00 -4.854
85.00 -5.074
86.00 -5.279
87.00 -5.601
88.00 -5.817
89.00 -6.138
90.00 -6.267
91.00 -6.367
92.00 -6.588
93.00 -6.772
94.00 -6.962
95.00 -6.825
96.00 -6.577
97.00 -6.257
98.00 -6.048
99.00 -5.660
100.00 -5.390
101.00 -5.056
102.00 -4.685
103.00 -4.269
104.00 -3.884
105.00 -3.454
106.00 -3.275
107.00 -2.864
108.00 -2.706
109.00 -2.374
110.00 -2.258
111.00 -2.017
112.00 -2.062
113.00 -2.000
114.00 -1.929
115.00 -1.979
116.00 -2.056
117.00 -2.014
118.00 -2.250
119.00 -2.381
120.00 -2.612
121.00 -2.829
122.00 -3.193
123.00 -3.511
124.00 -3.850
125.00 -4.344
126.00 -4.872
127.00 -5.529
128.00 -5.989
129.00 -6.924
130.00 -7.774
131.00 -8.437
132.00 -9.428
133.00 -10.571
134.00 -12.168
135.00 -13.664
136.00 -14.747
137.00 -15.601
138.00 -16.510
139.00 -15.140
140.00 -14.150
141.00 -12.923
142.00 -11.626
143.00 -10.109
144.00 -8.882
145.00 -7.856
146.00 -6.888
147.00 -5.991
148.00 -5.323
149.00 -4.524
150.00 -3.853
151.00 -3.226
152.00 -2.677
153.00 -2.154
154.00 -1.686
155.00 -1.212
156.00 -0.878
157.00 -0.497
158.00 -0.152
159.00 0.141
160.00 0.445
161.00 0.676
162.00 0.887
163.00 1.125
164.00 1.341
165.00 1.524
166.00 1.742
167.00 1.935
168.00 1.969
169.00 2.108
170.00 2.187
171.00 2.319
172.00 2.436
173.00 2.467
174.00 2.466
175.00 2.502
176.00 2.558
177.00 2.579
178.00 2.606
179.00 2.633
180.00 2.501
