Ant32 Data File V1.0
Date=21/03/2022
Time=09:49:05
Operator=Cyril
Title=irid
Remarks=Freq. = 1,617 GHz
ScanAxis=Theta
StepAxis=Phi : 90 deg
StepPosition=90
StepUnit=deg
FreqValue=1.617000
RecordIncrement=1
XyzImgAxis=0
XyzImgLabel=0
Abscissa=deg
Ordinate=dBi
Data#1
-180.00 3.343
-179.00 3.354
-178.00 3.258
-177.00 3.223
-176.00 3.156
-175.00 3.007
-174.00 2.903
-173.00 2.814
-172.00 2.650
-171.00 2.506
-170.00 2.343
-169.00 2.135
-168.00 1.983
-167.00 1.720
-166.00 1.543
-165.00 1.234
-164.00 0.936
-163.00 0.671
-162.00 0.381
-161.00 0.045
-160.00 -0.352
-159.00 -0.726
-158.00 -1.169
-157.00 -1.720
-156.00 -2.136
-155.00 -2.652
-154.00 -3.162
-153.00 -3.787
-152.00 -4.446
-151.00 -5.155
-150.00 -5.943
-149.00 -6.713
-148.00 -7.684
-147.00 -8.621
-146.00 -9.581
-145.00 -10.496
-144.00 -11.624
-143.00 -12.362
-142.00 -13.277
-141.00 -14.125
-140.00 -14.268
-139.00 -14.345
-138.00 -13.492
-137.00 -13.054
-136.00 -12.706
-135.00 -11.816
-134.00 -11.170
-133.00 -10.925
-132.00 -10.069
-131.00 -9.879
-130.00 -9.452
-129.00 -9.074
-128.00 -8.649
-127.00 -8.561
-126.00 -8.328
-125.00 -8.439
-124.00 -8.311
-123.00 -8.340
-122.00 -8.645
-121.00 -8.473
-120.00 -8.529
-119.00 -8.408
-118.00 -8.663
-117.00 -9.018
-116.00 -9.095
-115.00 -9.206
-114.00 -9.471
-113.00 -9.678
-112.00 -10.056
-111.00 -10.183
-110.00 -10.235
-109.00 -10.469
-108.00 -10.435
-107.00 -10.526
-106.00 -10.473
-105.00 -10.462
-104.00 -10.467
-103.00 -10.180
-102.00 -10.046
-101.00 -9.922
-100.00 -9.422
-99.00 -9.497
-98.00 -9.127
-97.00 -9.022
-96.00 -8.841
-95.00 -8.642
-94.00 -8.555
-93.00 -8.609
-92.00 -8.525
-91.00 -8.474
-90.00 -8.287
-89.00 -8.726
-88.00 -8.388
-87.00 -8.656
-86.00 -8.574
-85.00 -8.879
-84.00 -9.283
-83.00 -9.389
-82.00 -9.474
-81.00 -9.972
-80.00 -10.247
-79.00 -10.649
-78.00 -11.279
-77.00 -11.496
-76.00 -11.840
-75.00 -12.472
-74.00 -12.560
-73.00 -13.228
-72.00 -13.438
-71.00 -14.027
-70.00 -13.924
-69.00 -14.460
-68.00 -15.177
-67.00 -14.148
-66.00 -14.414
-65.00 -14.042
-64.00 -14.017
-63.00 -13.328
-62.00 -13.640
-61.00 -13.130
-60.00 -12.566
-59.00 -12.600
-58.00 -12.021
-57.00 -11.525
-56.00 -11.702
-55.00 -11.295
-54.00 -11.105
-53.00 -11.091
-52.00 -11.028
-51.00 -10.602
-50.00 -10.701
-49.00 -10.811
-48.00 -10.369
-47.00 -10.391
-46.00 -10.463
-45.00 -10.464
-44.00 -10.646
-43.00 -10.286
-42.00 -10.559
-41.00 -10.691
-40.00 -10.710
-39.00 -10.570
-38.00 -11.038
-37.00 -11.139
-36.00 -11.423
-35.00 -11.466
-34.00 -11.511
-33.00 -11.317
-32.00 -11.930
-31.00 -12.277
-30.00 -12.202
-29.00 -12.227
-28.00 -12.247
-27.00 -12.501
-26.00 -12.593
-25.00 -12.758
-24.00 -12.883
-23.00 -13.277
-22.00 -13.163
-21.00 -12.965
-20.00 -13.445
-19.00 -13.243
-18.00 -13.292
-17.00 -13.272
-16.00 -13.493
-15.00 -13.305
-14.00 -13.270
-13.00 -13.385
-12.00 -13.249
-11.00 -13.520
-10.00 -13.180
-9.00 -12.869
-8.00 -13.359
-7.00 -12.894
-6.00 -12.571
-5.00 -12.758
-4.00 -12.636
-3.00 -12.220
-2.00 -12.192
-1.00 -12.277
0.00 -12.333
1.00 -11.709
2.00 -12.155
3.00 -12.099
4.00 -12.120
5.00 -11.842
6.00 -11.813
7.00 -11.910
8.00 -11.391
9.00 -11.351
10.00 -11.372
11.00 -11.438
12.00 -11.260
13.00 -11.174
14.00 -10.795
15.00 -11.131
16.00 -10.927
17.00 -10.785
18.00 -10.721
19.00 -10.757
20.00 -10.641
21.00 -10.755
22.00 -10.828
23.00 -10.700
24.00 -10.544
25.00 -10.232
26.00 -10.598
27.00 -10.264
28.00 -10.553
29.00 -10.295
30.00 -10.239
31.00 -10.245
32.00 -9.711
33.00 -10.095
34.00 -10.109
35.00 -9.884
36.00 -10.328
37.00 -10.093
38.00 -10.081
39.00 -10.087
40.00 -10.109
41.00 -10.041
42.00 -9.871
43.00 -10.006
44.00 -10.057
45.00 -10.047
46.00 -10.088
47.00 -10.108
48.00 -9.993
49.00 -9.757
50.00 -9.949
51.00 -9.588
52.00 -9.620
53.00 -9.218
54.00 -9.066
55.00 -8.878
56.00 -8.596
57.00 -8.303
58.00 -8.224
59.00 -7.869
60.00 -7.414
61.00 -7.382
62.00 -7.227
63.00 -6.797
64.00 -6.566
65.00 -6.409
66.00 -6.382
67.00 -5.963
68.00 -5.643
69.00 -5.523
70.00 -5.362
71.00 -5.340
72.00 -5.217
73.00 -5.123
74.00 -5.018
75.00 -4.870
76.00 -4.864
77.00 -4.978
78.00 -5.085
79.00 -5.103
80.00 -5.402
81.00 -5.487
82.00 -5.650
83.00 -5.981
84.00 -6.078
85.00 -6.354
86.00 -6.643
87.00 -6.815
88.00 -7.086
89.00 -7.131
90.00 -7.332
91.00 -7.501
92.00 -7.131
93.00 -7.101
94.00 -7.068
95.00 -6.670
96.00 -6.377
97.00 -6.085
98.00 -5.503
99.00 -5.145
100.00 -4.812
101.00 -4.321
102.00 -3.946
103.00 -3.501
104.00 -3.167
105.00 -2.808
106.00 -2.622
107.00 -2.193
108.00 -2.163
109.00 -2.010
110.00 -1.802
111.00 -1.755
112.00 -1.688
113.00 -1.661
114.00 -1.679
115.00 -1.734
116.00 -1.761
117.00 -1.997
118.00 -2.126
119.00 -2.327
120.00 -2.631
121.00 -2.829
122.00 -3.314
123.00 -3.543
124.00 -4.080
125.00 -4.350
126.00 -5.107
127.00 -5.660
128.00 -6.325
129.00 -6.910
130.00 -7.671
131.00 -8.685
132.00 -9.551
133.00 -10.564
134.00 -11.391
135.00 -12.370
136.00 -13.158
137.00 -13.294
138.00 -12.914
139.00 -12.349
140.00 -11.219
141.00 -10.120
142.00 -8.981
143.00 -8.057
144.00 -6.971
145.00 -6.191
146.00 -5.299
147.00 -4.613
148.00 -3.904
149.00 -3.226
150.00 -2.575
151.00 -2.127
152.00 -1.577
153.00 -1.109
154.00 -0.720
155.00 -0.250
156.00 0.091
157.00 0.433
158.00 0.771
159.00 1.012
160.00 1.332
161.00 1.631
162.00 1.874
163.00 2.025
164.00 2.210
165.00 2.373
166.00 2.633
167.00 2.688
168.00 2.877
169.00 3.000
170.00 3.106
171.00 3.160
172.00 3.281
173.00 3.310
174.00 3.372
175.00 3.378
176.00 3.441
177.00 3.440
178.00 3.393
179.00 3.353
180.00 3.357
