Ant32 Data File V1.0
Date=21/03/2022
Time=09:45:38
Operator=Cyril
Title=irid
Remarks=Freq. = 1,613 GHz
ScanAxis=Theta
StepAxis=Phi : 0 deg
StepPosition=0
StepUnit=deg
FreqValue=1.613000
RecordIncrement=1
XyzImgAxis=0
XyzImgLabel=0
Abscissa=deg
Ordinate=dBi
Data#1
-180.00 2.454
-179.00 2.526
-178.00 2.482
-177.00 2.372
-176.00 2.298
-175.00 2.168
-174.00 2.100
-173.00 2.029
-172.00 1.794
-171.00 1.717
-170.00 1.506
-169.00 1.335
-168.00 1.199
-167.00 0.895
-166.00 0.802
-165.00 0.579
-164.00 0.274
-163.00 0.084
-162.00 -0.176
-161.00 -0.393
-160.00 -0.752
-159.00 -1.064
-158.00 -1.359
-157.00 -1.602
-156.00 -2.022
-155.00 -2.315
-154.00 -2.749
-153.00 -3.125
-152.00 -3.577
-151.00 -3.808
-150.00 -4.345
-149.00 -4.626
-148.00 -5.096
-147.00 -5.388
-146.00 -5.794
-145.00 -6.068
-144.00 -6.372
-143.00 -6.558
-142.00 -6.796
-141.00 -7.093
-140.00 -7.393
-139.00 -7.467
-138.00 -7.433
-137.00 -7.603
-136.00 -7.887
-135.00 -8.028
-134.00 -8.034
-133.00 -8.117
-132.00 -8.060
-131.00 -8.520
-130.00 -8.975
-129.00 -8.952
-128.00 -9.071
-127.00 -9.355
-126.00 -9.569
-125.00 -9.980
-124.00 -10.517
-123.00 -10.649
-122.00 -11.306
-121.00 -11.633
-120.00 -12.475
-119.00 -13.102
-118.00 -13.624
-117.00 -14.143
-116.00 -15.457
-115.00 -15.597
-114.00 -16.353
-113.00 -17.438
-112.00 -18.698
-111.00 -19.167
-110.00 -19.394
-109.00 -18.659
-108.00 -19.672
-107.00 -19.544
-106.00 -19.177
-105.00 -18.228
-104.00 -17.331
-103.00 -16.637
-102.00 -16.187
-101.00 -16.213
-100.00 -15.439
-99.00 -15.004
-98.00 -14.458
-97.00 -14.092
-96.00 -14.122
-95.00 -13.527
-94.00 -13.454
-93.00 -13.117
-92.00 -12.899
-91.00 -12.958
-90.00 -12.461
-89.00 -12.432
-88.00 -12.302
-87.00 -12.221
-86.00 -12.040
-85.00 -11.732
-84.00 -11.772
-83.00 -11.820
-82.00 -11.546
-81.00 -11.500
-80.00 -11.810
-79.00 -12.020
-78.00 -11.959
-77.00 -11.840
-76.00 -12.319
-75.00 -12.270
-74.00 -12.275
-73.00 -13.016
-72.00 -13.207
-71.00 -13.131
-70.00 -13.907
-69.00 -14.492
-68.00 -14.816
-67.00 -15.741
-66.00 -16.011
-65.00 -16.657
-64.00 -17.306
-63.00 -17.947
-62.00 -19.167
-61.00 -19.118
-60.00 -19.526
-59.00 -18.996
-58.00 -19.449
-57.00 -17.967
-56.00 -17.180
-55.00 -15.824
-54.00 -14.949
-53.00 -14.945
-52.00 -13.858
-51.00 -12.580
-50.00 -12.237
-49.00 -11.562
-48.00 -10.869
-47.00 -10.588
-46.00 -9.815
-45.00 -9.487
-44.00 -8.937
-43.00 -8.747
-42.00 -8.481
-41.00 -8.105
-40.00 -7.792
-39.00 -7.458
-38.00 -7.423
-37.00 -7.020
-36.00 -6.849
-35.00 -6.527
-34.00 -6.770
-33.00 -6.296
-32.00 -6.304
-31.00 -6.170
-30.00 -6.126
-29.00 -6.052
-28.00 -6.010
-27.00 -6.046
-26.00 -6.067
-25.00 -5.939
-24.00 -5.827
-23.00 -5.831
-22.00 -5.995
-21.00 -5.993
-20.00 -6.021
-19.00 -6.032
-18.00 -6.050
-17.00 -6.110
-16.00 -6.257
-15.00 -6.240
-14.00 -6.441
-13.00 -6.534
-12.00 -6.597
-11.00 -6.763
-10.00 -6.659
-9.00 -6.693
-8.00 -6.667
-7.00 -7.099
-6.00 -7.071
-5.00 -6.948
-4.00 -7.180
-3.00 -7.173
-2.00 -7.118
-1.00 -7.298
0.00 -7.161
1.00 -7.290
2.00 -7.394
3.00 -7.377
4.00 -7.363
5.00 -7.413
6.00 -7.504
7.00 -7.432
8.00 -7.451
9.00 -7.459
10.00 -7.422
11.00 -7.744
12.00 -7.437
13.00 -7.567
14.00 -7.460
15.00 -7.471
16.00 -7.325
17.00 -7.471
18.00 -7.323
19.00 -7.602
20.00 -7.377
21.00 -7.396
22.00 -7.388
23.00 -7.439
24.00 -7.277
25.00 -7.168
26.00 -7.186
27.00 -7.320
28.00 -7.302
29.00 -7.318
30.00 -7.232
31.00 -7.406
32.00 -7.155
33.00 -7.330
34.00 -7.209
35.00 -7.263
36.00 -7.364
37.00 -7.344
38.00 -7.353
39.00 -7.263
40.00 -7.261
41.00 -7.334
42.00 -7.211
43.00 -7.191
44.00 -7.321
45.00 -7.301
46.00 -7.276
47.00 -7.085
48.00 -7.283
49.00 -7.308
50.00 -7.268
51.00 -7.148
52.00 -7.085
53.00 -6.909
54.00 -6.974
55.00 -6.876
56.00 -6.571
57.00 -6.691
58.00 -6.535
59.00 -6.303
60.00 -6.463
61.00 -6.407
62.00 -6.196
63.00 -6.161
64.00 -5.976
65.00 -5.999
66.00 -6.060
67.00 -6.005
68.00 -5.940
69.00 -5.793
70.00 -6.000
71.00 -5.947
72.00 -5.986
73.00 -6.011
74.00 -6.163
75.00 -6.028
76.00 -6.386
77.00 -6.210
78.00 -6.339
79.00 -6.483
80.00 -6.588
81.00 -6.547
82.00 -6.704
83.00 -6.514
84.00 -6.659
85.00 -6.806
86.00 -6.832
87.00 -6.788
88.00 -6.620
89.00 -6.620
90.00 -6.559
91.00 -6.447
92.00 -6.408
93.00 -6.238
94.00 -6.100
95.00 -5.903
96.00 -5.719
97.00 -5.606
98.00 -5.272
99.00 -5.126
100.00 -5.012
101.00 -4.579
102.00 -4.423
103.00 -4.356
104.00 -4.048
105.00 -3.882
106.00 -3.729
107.00 -3.579
108.00 -3.443
109.00 -3.293
110.00 -3.179
111.00 -3.161
112.00 -3.079
113.00 -2.983
114.00 -2.902
115.00 -2.924
116.00 -2.858
117.00 -2.839
118.00 -2.940
119.00 -3.008
120.00 -3.084
121.00 -3.200
122.00 -3.301
123.00 -3.499
124.00 -3.699
125.00 -3.698
126.00 -4.147
127.00 -4.398
128.00 -4.615
129.00 -5.012
130.00 -5.315
131.00 -5.840
132.00 -6.070
133.00 -6.462
134.00 -6.948
135.00 -7.142
136.00 -7.500
137.00 -7.621
138.00 -7.744
139.00 -7.579
140.00 -7.490
141.00 -7.231
142.00 -6.886
143.00 -6.663
144.00 -5.895
145.00 -5.618
146.00 -5.081
147.00 -4.311
148.00 -3.920
149.00 -3.372
150.00 -2.950
151.00 -2.465
152.00 -2.010
153.00 -1.521
154.00 -1.020
155.00 -0.738
156.00 -0.372
157.00 -0.074
158.00 0.284
159.00 0.531
160.00 0.785
161.00 1.035
162.00 1.273
163.00 1.495
164.00 1.586
165.00 1.752
166.00 1.933
167.00 2.064
168.00 2.164
169.00 2.271
170.00 2.369
171.00 2.464
172.00 2.498
173.00 2.519
174.00 2.568
175.00 2.615
176.00 2.624
177.00 2.628
178.00 2.617
179.00 2.566
180.00 2.568
