Ant32 Data File V1.0
Date=21/03/2022
Time=09:45:38
Operator=Cyril
Title=irid
Remarks=Freq. = 1,617 GHz
ScanAxis=Theta
StepAxis=Phi : 0 deg
StepPosition=0
StepUnit=deg
FreqValue=1.617000
RecordIncrement=1
XyzImgAxis=0
XyzImgLabel=0
Abscissa=deg
Ordinate=dBi
Data#1
-180.00 3.204
-179.00 3.215
-178.00 3.142
-177.00 3.145
-176.00 3.003
-175.00 2.905
-174.00 2.809
-173.00 2.644
-172.00 2.534
-171.00 2.365
-170.00 2.159
-169.00 2.024
-168.00 1.894
-167.00 1.635
-166.00 1.476
-165.00 1.191
-164.00 0.881
-163.00 0.672
-162.00 0.436
-161.00 0.104
-160.00 -0.212
-159.00 -0.507
-158.00 -0.880
-157.00 -1.268
-156.00 -1.597
-155.00 -1.989
-154.00 -2.431
-153.00 -2.818
-152.00 -3.181
-151.00 -3.611
-150.00 -4.188
-149.00 -4.458
-148.00 -5.050
-147.00 -5.341
-146.00 -5.691
-145.00 -6.334
-144.00 -6.545
-143.00 -6.994
-142.00 -7.415
-141.00 -7.639
-140.00 -7.881
-139.00 -8.058
-138.00 -8.138
-137.00 -8.542
-136.00 -8.485
-135.00 -8.865
-134.00 -9.058
-133.00 -9.289
-132.00 -9.313
-131.00 -9.774
-130.00 -9.857
-129.00 -10.093
-128.00 -10.218
-127.00 -10.826
-126.00 -11.131
-125.00 -11.350
-124.00 -11.747
-123.00 -12.472
-122.00 -13.079
-121.00 -13.846
-120.00 -14.832
-119.00 -15.716
-118.00 -16.065
-117.00 -16.981
-116.00 -17.576
-115.00 -18.328
-114.00 -19.691
-113.00 -19.818
-112.00 -20.308
-111.00 -19.209
-110.00 -19.113
-109.00 -18.899
-108.00 -18.822
-107.00 -17.791
-106.00 -17.710
-105.00 -16.971
-104.00 -16.906
-103.00 -16.866
-102.00 -16.226
-101.00 -15.821
-100.00 -16.021
-99.00 -15.841
-98.00 -15.699
-97.00 -16.579
-96.00 -16.508
-95.00 -16.867
-94.00 -17.050
-93.00 -17.288
-92.00 -17.901
-91.00 -18.504
-90.00 -18.890
-89.00 -19.713
-88.00 -19.911
-87.00 -19.783
-86.00 -19.858
-85.00 -19.195
-84.00 -19.055
-83.00 -19.425
-82.00 -19.000
-81.00 -17.565
-80.00 -17.331
-79.00 -16.542
-78.00 -16.357
-77.00 -15.792
-76.00 -15.055
-75.00 -14.986
-74.00 -14.541
-73.00 -14.316
-72.00 -14.161
-71.00 -13.711
-70.00 -14.392
-69.00 -13.849
-68.00 -14.297
-67.00 -14.314
-66.00 -14.336
-65.00 -14.479
-64.00 -14.945
-63.00 -15.729
-62.00 -16.026
-61.00 -16.764
-60.00 -17.855
-59.00 -18.625
-58.00 -19.408
-57.00 -22.081
-56.00 -23.193
-55.00 -25.485
-54.00 -26.609
-53.00 -28.396
-52.00 -28.540
-51.00 -30.582
-50.00 -25.864
-49.00 -23.226
-48.00 -22.186
-47.00 -19.882
-46.00 -18.460
-45.00 -17.429
-44.00 -16.237
-43.00 -15.543
-42.00 -14.648
-41.00 -14.192
-40.00 -13.130
-39.00 -12.491
-38.00 -12.182
-37.00 -11.705
-36.00 -11.160
-35.00 -10.835
-34.00 -10.604
-33.00 -9.897
-32.00 -9.840
-31.00 -9.628
-30.00 -9.343
-29.00 -9.363
-28.00 -9.051
-27.00 -8.811
-26.00 -8.831
-25.00 -8.651
-24.00 -8.507
-23.00 -8.440
-22.00 -8.446
-21.00 -8.397
-20.00 -8.353
-19.00 -8.604
-18.00 -8.386
-17.00 -8.378
-16.00 -8.282
-15.00 -8.575
-14.00 -8.589
-13.00 -8.687
-12.00 -8.577
-11.00 -8.794
-10.00 -8.689
-9.00 -8.854
-8.00 -8.808
-7.00 -8.899
-6.00 -8.989
-5.00 -9.406
-4.00 -9.190
-3.00 -9.310
-2.00 -9.408
-1.00 -9.417
0.00 -9.488
1.00 -9.553
2.00 -9.626
3.00 -9.722
4.00 -9.801
5.00 -9.917
6.00 -9.742
7.00 -10.101
8.00 -10.078
9.00 -10.343
10.00 -10.260
11.00 -10.467
12.00 -10.480
13.00 -10.578
14.00 -10.664
15.00 -10.593
16.00 -11.030
17.00 -10.717
18.00 -10.666
19.00 -10.620
20.00 -10.908
21.00 -10.829
22.00 -11.065
23.00 -11.260
24.00 -11.108
25.00 -11.094
26.00 -11.203
27.00 -11.305
28.00 -11.525
29.00 -11.464
30.00 -11.317
31.00 -11.504
32.00 -11.533
33.00 -11.606
34.00 -11.686
35.00 -12.019
36.00 -11.828
37.00 -12.008
38.00 -12.053
39.00 -12.364
40.00 -12.133
41.00 -11.848
42.00 -12.263
43.00 -12.107
44.00 -12.449
45.00 -12.077
46.00 -12.223
47.00 -12.153
48.00 -12.400
49.00 -11.901
50.00 -12.180
51.00 -11.932
52.00 -11.803
53.00 -11.375
54.00 -11.284
55.00 -11.203
56.00 -11.227
57.00 -10.959
58.00 -10.750
59.00 -10.828
60.00 -10.532
61.00 -10.471
62.00 -10.176
63.00 -10.231
64.00 -9.889
65.00 -10.051
66.00 -9.673
67.00 -9.750
68.00 -9.311
69.00 -9.390
70.00 -9.374
71.00 -9.269
72.00 -9.064
73.00 -9.030
74.00 -8.939
75.00 -8.909
76.00 -8.861
77.00 -8.802
78.00 -8.795
79.00 -8.906
80.00 -8.912
81.00 -8.808
82.00 -8.832
83.00 -8.916
84.00 -8.895
85.00 -8.859
86.00 -8.923
87.00 -8.821
88.00 -8.783
89.00 -8.827
90.00 -8.422
91.00 -8.494
92.00 -8.418
93.00 -8.214
94.00 -7.838
95.00 -7.484
96.00 -7.221
97.00 -7.090
98.00 -6.767
99.00 -6.573
100.00 -6.156
101.00 -5.836
102.00 -5.468
103.00 -5.153
104.00 -4.925
105.00 -4.625
106.00 -4.272
107.00 -4.183
108.00 -3.723
109.00 -3.639
110.00 -3.465
111.00 -3.253
112.00 -3.096
113.00 -2.973
114.00 -2.766
115.00 -2.693
116.00 -2.720
117.00 -2.775
118.00 -2.684
119.00 -2.789
120.00 -2.679
121.00 -2.893
122.00 -2.910
123.00 -3.217
124.00 -3.234
125.00 -3.514
126.00 -3.848
127.00 -3.994
128.00 -4.351
129.00 -4.626
130.00 -4.922
131.00 -5.389
132.00 -5.751
133.00 -6.370
134.00 -6.700
135.00 -6.976
136.00 -7.349
137.00 -7.649
138.00 -7.813
139.00 -7.641
140.00 -7.747
141.00 -7.524
142.00 -6.915
143.00 -6.493
144.00 -5.904
145.00 -5.398
146.00 -4.685
147.00 -4.155
148.00 -3.608
149.00 -3.194
150.00 -2.508
151.00 -1.939
152.00 -1.453
153.00 -1.036
154.00 -0.617
155.00 -0.267
156.00 0.185
157.00 0.461
158.00 0.841
159.00 1.115
160.00 1.439
161.00 1.681
162.00 1.878
163.00 2.102
164.00 2.287
165.00 2.431
166.00 2.594
167.00 2.696
168.00 2.873
169.00 2.977
170.00 3.089
171.00 3.124
172.00 3.178
173.00 3.276
174.00 3.286
175.00 3.324
176.00 3.341
177.00 3.370
178.00 3.351
179.00 3.284
180.00 3.224
