Ant32 Data File V1.0
Date=21/03/2022
Time=09:49:05
Operator=Cyril
Title=irid
Remarks=Freq. = 1,618 GHz
ScanAxis=Theta
StepAxis=Phi : 90 deg
StepPosition=90
StepUnit=deg
FreqValue=1.618000
RecordIncrement=1
XyzImgAxis=0
XyzImgLabel=0
Abscissa=deg
Ordinate=dBi
Data#1
-180.00 3.470
-179.00 3.400
-178.00 3.362
-177.00 3.230
-176.00 3.194
-175.00 3.087
-174.00 2.987
-173.00 2.865
-172.00 2.761
-171.00 2.566
-170.00 2.460
-169.00 2.251
-168.00 2.054
-167.00 1.796
-166.00 1.664
-165.00 1.352
-164.00 1.025
-163.00 0.777
-162.00 0.506
-161.00 0.082
-160.00 -0.294
-159.00 -0.644
-158.00 -1.006
-157.00 -1.504
-156.00 -2.008
-155.00 -2.606
-154.00 -3.166
-153.00 -3.747
-152.00 -4.371
-151.00 -5.041
-150.00 -5.793
-149.00 -6.594
-148.00 -7.375
-147.00 -8.343
-146.00 -9.401
-145.00 -10.388
-144.00 -11.238
-143.00 -12.515
-142.00 -12.983
-141.00 -13.950
-140.00 -14.074
-139.00 -13.957
-138.00 -13.549
-137.00 -13.242
-136.00 -12.742
-135.00 -12.035
-134.00 -11.308
-133.00 -10.788
-132.00 -10.087
-131.00 -9.914
-130.00 -9.248
-129.00 -9.154
-128.00 -8.937
-127.00 -8.677
-126.00 -8.372
-125.00 -8.504
-124.00 -8.518
-123.00 -8.458
-122.00 -8.469
-121.00 -8.574
-120.00 -8.574
-119.00 -8.699
-118.00 -9.071
-117.00 -9.137
-116.00 -9.156
-115.00 -9.383
-114.00 -9.570
-113.00 -9.600
-112.00 -10.284
-111.00 -10.169
-110.00 -10.408
-109.00 -10.611
-108.00 -10.362
-107.00 -10.379
-106.00 -10.637
-105.00 -10.363
-104.00 -10.490
-103.00 -10.212
-102.00 -9.970
-101.00 -9.569
-100.00 -9.405
-99.00 -9.385
-98.00 -9.309
-97.00 -9.041
-96.00 -8.769
-95.00 -8.841
-94.00 -8.889
-93.00 -8.825
-92.00 -8.690
-91.00 -8.439
-90.00 -8.686
-89.00 -8.614
-88.00 -8.783
-87.00 -8.712
-86.00 -8.957
-85.00 -9.294
-84.00 -9.479
-83.00 -9.471
-82.00 -9.986
-81.00 -10.155
-80.00 -10.620
-79.00 -10.808
-78.00 -11.109
-77.00 -11.560
-76.00 -12.333
-75.00 -12.479
-74.00 -13.266
-73.00 -13.519
-72.00 -13.876
-71.00 -14.327
-70.00 -14.561
-69.00 -15.032
-68.00 -15.437
-67.00 -15.106
-66.00 -15.414
-65.00 -15.105
-64.00 -14.869
-63.00 -14.911
-62.00 -14.543
-61.00 -14.306
-60.00 -13.709
-59.00 -13.646
-58.00 -13.342
-57.00 -12.771
-56.00 -13.052
-55.00 -12.455
-54.00 -11.829
-53.00 -12.050
-52.00 -11.765
-51.00 -11.599
-50.00 -11.463
-49.00 -11.412
-48.00 -11.087
-47.00 -11.431
-46.00 -11.411
-45.00 -11.174
-44.00 -11.236
-43.00 -11.168
-42.00 -11.372
-41.00 -11.315
-40.00 -11.344
-39.00 -11.392
-38.00 -11.426
-37.00 -11.937
-36.00 -11.442
-35.00 -12.119
-34.00 -11.933
-33.00 -11.869
-32.00 -12.114
-31.00 -12.253
-30.00 -12.215
-29.00 -12.887
-28.00 -12.551
-27.00 -12.993
-26.00 -12.577
-25.00 -13.309
-24.00 -13.125
-23.00 -13.297
-22.00 -13.187
-21.00 -13.542
-20.00 -13.759
-19.00 -13.696
-18.00 -13.972
-17.00 -13.920
-16.00 -13.553
-15.00 -13.799
-14.00 -13.793
-13.00 -13.552
-12.00 -13.617
-11.00 -13.804
-10.00 -13.616
-9.00 -13.669
-8.00 -13.471
-7.00 -13.298
-6.00 -13.337
-5.00 -13.244
-4.00 -13.157
-3.00 -13.463
-2.00 -12.663
-1.00 -13.120
0.00 -12.981
1.00 -13.047
2.00 -12.819
3.00 -13.021
4.00 -13.228
5.00 -13.033
6.00 -12.761
7.00 -12.290
8.00 -12.397
9.00 -12.493
10.00 -12.822
11.00 -12.750
12.00 -12.522
13.00 -12.085
14.00 -12.432
15.00 -12.432
16.00 -12.294
17.00 -12.031
18.00 -12.202
19.00 -12.592
20.00 -12.077
21.00 -12.048
22.00 -12.110
23.00 -12.289
24.00 -12.094
25.00 -11.741
26.00 -12.115
27.00 -11.911
28.00 -11.980
29.00 -11.699
30.00 -11.844
31.00 -11.723
32.00 -11.504
33.00 -11.934
34.00 -11.497
35.00 -11.713
36.00 -11.593
37.00 -11.613
38.00 -11.495
39.00 -11.757
40.00 -11.609
41.00 -11.491
42.00 -11.550
43.00 -11.400
44.00 -11.457
45.00 -11.512
46.00 -10.958
47.00 -11.064
48.00 -10.935
49.00 -10.827
50.00 -10.539
51.00 -10.553
52.00 -10.280
53.00 -10.105
54.00 -9.800
55.00 -9.595
56.00 -9.265
57.00 -9.123
58.00 -8.683
59.00 -8.351
60.00 -8.050
61.00 -7.700
62.00 -7.534
63.00 -7.338
64.00 -6.996
65.00 -6.718
66.00 -6.602
67.00 -6.272
68.00 -6.283
69.00 -5.865
70.00 -5.776
71.00 -5.600
72.00 -5.568
73.00 -5.480
74.00 -5.456
75.00 -5.516
76.00 -5.465
77.00 -5.615
78.00 -5.540
79.00 -5.632
80.00 -6.000
81.00 -5.935
82.00 -6.371
83.00 -6.597
84.00 -6.717
85.00 -7.035
86.00 -7.428
87.00 -7.515
88.00 -7.877
89.00 -7.748
90.00 -7.986
91.00 -7.857
92.00 -7.693
93.00 -7.652
94.00 -7.388
95.00 -6.988
96.00 -6.553
97.00 -6.314
98.00 -5.786
99.00 -5.295
100.00 -4.718
101.00 -4.372
102.00 -3.907
103.00 -3.584
104.00 -3.167
105.00 -3.000
106.00 -2.704
107.00 -2.416
108.00 -2.212
109.00 -2.063
110.00 -1.939
111.00 -1.869
112.00 -1.800
113.00 -1.823
114.00 -1.888
115.00 -1.947
116.00 -2.012
117.00 -2.170
118.00 -2.365
119.00 -2.604
120.00 -2.865
121.00 -3.040
122.00 -3.503
123.00 -3.802
124.00 -4.203
125.00 -4.780
126.00 -5.314
127.00 -5.817
128.00 -6.525
129.00 -7.090
130.00 -7.907
131.00 -9.073
132.00 -9.882
133.00 -10.722
134.00 -11.579
135.00 -12.299
136.00 -12.654
137.00 -12.938
138.00 -12.846
139.00 -11.656
140.00 -10.699
141.00 -9.682
142.00 -8.627
143.00 -7.560
144.00 -6.711
145.00 -5.816
146.00 -4.979
147.00 -4.292
148.00 -3.699
149.00 -3.078
150.00 -2.413
151.00 -1.911
152.00 -1.473
153.00 -0.987
154.00 -0.592
155.00 -0.163
156.00 0.198
157.00 0.598
158.00 0.835
159.00 1.194
160.00 1.393
161.00 1.720
162.00 1.948
163.00 2.113
164.00 2.273
165.00 2.529
166.00 2.639
167.00 2.818
168.00 2.976
169.00 3.135
170.00 3.143
171.00 3.286
172.00 3.342
173.00 3.402
174.00 3.408
175.00 3.506
176.00 3.487
177.00 3.490
178.00 3.475
179.00 3.505
180.00 3.449
