Ant32 Data File V1.0
Date=21/03/2022
Time=09:45:38
Operator=Cyril
Title=irid
Remarks=Freq. = 1,621 GHz
ScanAxis=Theta
StepAxis=Phi : 0 deg
StepPosition=0
StepUnit=deg
FreqValue=1.621000
RecordIncrement=1
XyzImgAxis=0
XyzImgLabel=0
Abscissa=deg
Ordinate=dBi
Data#1
-180.00 3.337
-179.00 3.278
-178.00 3.213
-177.00 3.166
-176.00 3.045
-175.00 3.044
-174.00 2.857
-173.00 2.730
-172.00 2.600
-171.00 2.503
-170.00 2.304
-169.00 2.117
-168.00 1.875
-167.00 1.719
-166.00 1.474
-165.00 1.223
-164.00 0.961
-163.00 0.647
-162.00 0.298
-161.00 0.075
-160.00 -0.209
-159.00 -0.607
-158.00 -1.003
-157.00 -1.360
-156.00 -1.771
-155.00 -2.279
-154.00 -2.712
-153.00 -3.060
-152.00 -3.570
-151.00 -3.943
-150.00 -4.523
-149.00 -5.110
-148.00 -5.628
-147.00 -6.017
-146.00 -6.563
-145.00 -6.970
-144.00 -7.525
-143.00 -7.916
-142.00 -8.267
-141.00 -8.678
-140.00 -8.913
-139.00 -8.962
-138.00 -9.187
-137.00 -9.346
-136.00 -9.461
-135.00 -9.476
-134.00 -9.630
-133.00 -9.607
-132.00 -9.822
-131.00 -9.731
-130.00 -9.804
-129.00 -10.048
-128.00 -10.126
-127.00 -10.327
-126.00 -10.496
-125.00 -11.106
-124.00 -11.481
-123.00 -11.647
-122.00 -11.887
-121.00 -12.301
-120.00 -12.669
-119.00 -13.477
-118.00 -13.297
-117.00 -13.668
-116.00 -13.810
-115.00 -14.170
-114.00 -14.124
-113.00 -14.427
-112.00 -14.095
-111.00 -14.319
-110.00 -13.895
-109.00 -13.501
-108.00 -13.492
-107.00 -13.370
-106.00 -12.869
-105.00 -12.505
-104.00 -12.658
-103.00 -12.316
-102.00 -11.941
-101.00 -12.437
-100.00 -12.117
-99.00 -12.029
-98.00 -12.418
-97.00 -12.714
-96.00 -12.760
-95.00 -12.927
-94.00 -13.293
-93.00 -13.614
-92.00 -14.111
-91.00 -15.080
-90.00 -15.299
-89.00 -16.009
-88.00 -16.868
-87.00 -17.373
-86.00 -18.706
-85.00 -19.285
-84.00 -21.166
-83.00 -20.491
-82.00 -20.241
-81.00 -20.246
-80.00 -19.426
-79.00 -18.497
-78.00 -17.369
-77.00 -16.374
-76.00 -15.630
-75.00 -14.701
-74.00 -13.824
-73.00 -13.856
-72.00 -12.860
-71.00 -12.108
-70.00 -12.040
-69.00 -11.821
-68.00 -11.611
-67.00 -10.959
-66.00 -11.148
-65.00 -10.966
-64.00 -10.466
-63.00 -10.384
-62.00 -10.372
-61.00 -10.760
-60.00 -10.689
-59.00 -10.763
-58.00 -10.722
-57.00 -11.345
-56.00 -11.462
-55.00 -11.748
-54.00 -11.886
-53.00 -12.498
-52.00 -12.366
-51.00 -13.091
-50.00 -13.590
-49.00 -14.033
-48.00 -14.721
-47.00 -15.046
-46.00 -16.124
-45.00 -16.193
-44.00 -17.127
-43.00 -17.711
-42.00 -18.291
-41.00 -18.058
-40.00 -19.371
-39.00 -18.684
-38.00 -18.833
-37.00 -17.801
-36.00 -17.277
-35.00 -17.129
-34.00 -16.544
-33.00 -15.689
-32.00 -15.518
-31.00 -15.027
-30.00 -14.319
-29.00 -14.356
-28.00 -13.411
-27.00 -13.145
-26.00 -12.969
-25.00 -12.817
-24.00 -12.126
-23.00 -12.225
-22.00 -11.614
-21.00 -11.799
-20.00 -11.453
-19.00 -11.326
-18.00 -11.206
-17.00 -11.082
-16.00 -11.260
-15.00 -11.308
-14.00 -10.927
-13.00 -10.988
-12.00 -11.090
-11.00 -10.791
-10.00 -10.872
-9.00 -10.860
-8.00 -10.916
-7.00 -10.922
-6.00 -10.765
-5.00 -10.961
-4.00 -10.849
-3.00 -10.887
-2.00 -11.109
-1.00 -11.239
0.00 -11.259
1.00 -11.262
2.00 -11.506
3.00 -11.560
4.00 -11.660
5.00 -11.727
6.00 -11.927
7.00 -12.028
8.00 -12.463
9.00 -12.235
10.00 -12.768
11.00 -12.758
12.00 -13.022
13.00 -13.141
14.00 -12.949
15.00 -13.666
16.00 -13.648
17.00 -13.790
18.00 -14.202
19.00 -14.528
20.00 -14.188
21.00 -14.638
22.00 -14.396
23.00 -15.041
24.00 -15.035
25.00 -15.323
26.00 -15.929
27.00 -16.166
28.00 -16.271
29.00 -16.961
30.00 -16.698
31.00 -17.471
32.00 -17.419
33.00 -18.036
34.00 -18.351
35.00 -18.419
36.00 -19.520
37.00 -20.189
38.00 -19.777
39.00 -20.625
40.00 -20.731
41.00 -20.736
42.00 -21.840
43.00 -20.955
44.00 -21.378
45.00 -22.222
46.00 -22.348
47.00 -22.141
48.00 -23.718
49.00 -23.455
50.00 -24.997
51.00 -24.771
52.00 -25.651
53.00 -26.627
54.00 -29.001
55.00 -27.325
56.00 -30.791
57.00 -31.340
58.00 -34.130
59.00 -32.175
60.00 -32.037
61.00 -27.748
62.00 -26.665
63.00 -24.614
64.00 -23.491
65.00 -21.423
66.00 -19.431
67.00 -17.935
68.00 -17.288
69.00 -15.802
70.00 -15.455
71.00 -14.398
72.00 -13.766
73.00 -13.574
74.00 -12.487
75.00 -12.154
76.00 -11.392
77.00 -11.082
78.00 -11.168
79.00 -10.735
80.00 -10.255
81.00 -9.942
82.00 -9.842
83.00 -9.686
84.00 -9.594
85.00 -9.605
86.00 -9.236
87.00 -9.356
88.00 -9.232
89.00 -9.213
90.00 -9.172
91.00 -9.169
92.00 -8.752
93.00 -8.745
94.00 -8.537
95.00 -8.452
96.00 -7.933
97.00 -8.029
98.00 -7.607
99.00 -6.869
100.00 -6.727
101.00 -6.541
102.00 -6.078
103.00 -5.541
104.00 -5.376
105.00 -4.920
106.00 -4.640
107.00 -4.290
108.00 -3.937
109.00 -3.838
110.00 -3.472
111.00 -3.264
112.00 -3.044
113.00 -2.983
114.00 -2.771
115.00 -2.664
116.00 -2.578
117.00 -2.491
118.00 -2.368
119.00 -2.470
120.00 -2.641
121.00 -2.599
122.00 -2.745
123.00 -2.698
124.00 -3.059
125.00 -3.273
126.00 -3.455
127.00 -3.659
128.00 -4.069
129.00 -4.285
130.00 -4.764
131.00 -5.104
132.00 -5.639
133.00 -6.126
134.00 -6.574
135.00 -7.033
136.00 -7.478
137.00 -8.031
138.00 -8.245
139.00 -8.252
140.00 -8.304
141.00 -7.806
142.00 -7.673
143.00 -7.076
144.00 -6.401
145.00 -5.770
146.00 -5.149
147.00 -4.719
148.00 -3.939
149.00 -3.271
150.00 -2.816
151.00 -2.205
152.00 -1.613
153.00 -1.092
154.00 -0.696
155.00 -0.312
156.00 0.097
157.00 0.393
158.00 0.784
159.00 1.154
160.00 1.311
161.00 1.635
162.00 1.840
163.00 2.115
164.00 2.295
165.00 2.440
166.00 2.628
167.00 2.809
168.00 2.893
169.00 3.031
170.00 3.180
171.00 3.207
172.00 3.310
173.00 3.338
174.00 3.446
175.00 3.425
176.00 3.497
177.00 3.394
178.00 3.442
179.00 3.442
180.00 3.346
