Ant32 Data File V1.0
Date=21/03/2022
Time=09:49:05
Operator=Cyril
Title=irid
Remarks=Freq. = 1,621 GHz
ScanAxis=Theta
StepAxis=Phi : 90 deg
StepPosition=90
StepUnit=deg
FreqValue=1.621000
RecordIncrement=1
XyzImgAxis=0
XyzImgLabel=0
Abscissa=deg
Ordinate=dBi
Data#1
-180.00 3.453
-179.00 3.411
-178.00 3.332
-177.00 3.322
-176.00 3.246
-175.00 3.156
-174.00 3.080
-173.00 2.877
-172.00 2.775
-171.00 2.667
-170.00 2.425
-169.00 2.307
-168.00 2.131
-167.00 1.858
-166.00 1.595
-165.00 1.408
-164.00 1.125
-163.00 0.851
-162.00 0.509
-161.00 0.240
-160.00 -0.198
-159.00 -0.519
-158.00 -1.023
-157.00 -1.387
-156.00 -1.895
-155.00 -2.431
-154.00 -3.030
-153.00 -3.581
-152.00 -4.213
-151.00 -4.859
-150.00 -5.700
-149.00 -6.253
-148.00 -7.369
-147.00 -8.174
-146.00 -8.968
-145.00 -10.126
-144.00 -10.941
-143.00 -11.866
-142.00 -12.994
-141.00 -13.500
-140.00 -14.377
-139.00 -13.889
-138.00 -14.029
-137.00 -13.413
-136.00 -13.177
-135.00 -12.932
-134.00 -12.256
-133.00 -11.325
-132.00 -10.863
-131.00 -10.486
-130.00 -9.931
-129.00 -10.094
-128.00 -9.799
-127.00 -9.672
-126.00 -9.380
-125.00 -9.179
-124.00 -9.325
-123.00 -9.156
-122.00 -9.434
-121.00 -9.316
-120.00 -9.174
-119.00 -9.741
-118.00 -9.884
-117.00 -10.080
-116.00 -10.011
-115.00 -10.154
-114.00 -10.402
-113.00 -10.445
-112.00 -10.600
-111.00 -10.678
-110.00 -10.911
-109.00 -10.737
-108.00 -11.157
-107.00 -10.722
-106.00 -10.707
-105.00 -10.840
-104.00 -10.940
-103.00 -10.611
-102.00 -10.747
-101.00 -10.336
-100.00 -10.521
-99.00 -10.045
-98.00 -9.997
-97.00 -9.929
-96.00 -9.800
-95.00 -9.899
-94.00 -9.601
-93.00 -9.858
-92.00 -9.629
-91.00 -9.944
-90.00 -9.898
-89.00 -10.064
-88.00 -9.802
-87.00 -10.111
-86.00 -10.248
-85.00 -10.106
-84.00 -10.793
-83.00 -10.539
-82.00 -10.881
-81.00 -11.178
-80.00 -11.334
-79.00 -11.697
-78.00 -11.785
-77.00 -12.181
-76.00 -12.894
-75.00 -13.083
-74.00 -13.597
-73.00 -13.881
-72.00 -14.311
-71.00 -15.174
-70.00 -15.556
-69.00 -15.635
-68.00 -16.322
-67.00 -17.204
-66.00 -16.973
-65.00 -17.023
-64.00 -17.581
-63.00 -17.008
-62.00 -17.656
-61.00 -16.761
-60.00 -16.598
-59.00 -16.745
-58.00 -16.427
-57.00 -15.839
-56.00 -16.006
-55.00 -14.817
-54.00 -15.176
-53.00 -14.269
-52.00 -14.145
-51.00 -13.670
-50.00 -13.323
-49.00 -13.030
-48.00 -12.548
-47.00 -12.538
-46.00 -12.297
-45.00 -12.195
-44.00 -11.971
-43.00 -11.815
-42.00 -11.447
-41.00 -11.424
-40.00 -11.124
-39.00 -11.244
-38.00 -11.273
-37.00 -10.928
-36.00 -10.611
-35.00 -10.792
-34.00 -10.687
-33.00 -10.915
-32.00 -10.925
-31.00 -10.515
-30.00 -10.834
-29.00 -10.904
-28.00 -10.740
-27.00 -11.049
-26.00 -11.024
-25.00 -11.047
-24.00 -10.950
-23.00 -11.108
-22.00 -11.089
-21.00 -11.097
-20.00 -11.349
-19.00 -11.530
-18.00 -11.245
-17.00 -11.273
-16.00 -11.782
-15.00 -11.704
-14.00 -11.618
-13.00 -11.664
-12.00 -11.957
-11.00 -11.861
-10.00 -11.783
-9.00 -12.049
-8.00 -12.192
-7.00 -12.222
-6.00 -12.204
-5.00 -12.458
-4.00 -12.455
-3.00 -12.424
-2.00 -12.535
-1.00 -12.454
0.00 -12.601
1.00 -12.895
2.00 -12.933
3.00 -13.160
4.00 -12.855
5.00 -12.870
6.00 -13.762
7.00 -13.475
8.00 -13.518
9.00 -13.957
10.00 -13.772
11.00 -14.297
12.00 -14.022
13.00 -14.841
14.00 -14.571
15.00 -14.835
16.00 -15.298
17.00 -15.479
18.00 -15.270
19.00 -15.324
20.00 -15.955
21.00 -16.149
22.00 -16.481
23.00 -16.050
24.00 -16.547
25.00 -16.638
26.00 -16.944
27.00 -16.718
28.00 -16.928
29.00 -16.955
30.00 -17.486
31.00 -16.759
32.00 -16.842
33.00 -16.908
34.00 -17.231
35.00 -17.471
36.00 -17.259
37.00 -16.556
38.00 -16.978
39.00 -16.403
40.00 -16.332
41.00 -15.697
42.00 -15.527
43.00 -15.193
44.00 -14.935
45.00 -14.673
46.00 -14.198
47.00 -13.979
48.00 -13.631
49.00 -12.991
50.00 -12.805
51.00 -12.778
52.00 -12.454
53.00 -11.734
54.00 -11.361
55.00 -11.278
56.00 -10.825
57.00 -10.466
58.00 -10.232
59.00 -9.910
60.00 -9.421
61.00 -9.208
62.00 -8.933
63.00 -8.831
64.00 -8.593
65.00 -8.199
66.00 -8.253
67.00 -8.037
68.00 -7.860
69.00 -7.822
70.00 -7.918
71.00 -7.718
72.00 -7.687
73.00 -7.687
74.00 -7.706
75.00 -7.681
76.00 -7.880
77.00 -8.006
78.00 -8.187
79.00 -8.371
80.00 -8.484
81.00 -9.062
82.00 -9.061
83.00 -9.623
84.00 -10.017
85.00 -10.323
86.00 -10.949
87.00 -11.350
88.00 -10.901
89.00 -11.034
90.00 -10.932
91.00 -10.857
92.00 -10.150
93.00 -9.595
94.00 -8.954
95.00 -8.468
96.00 -8.029
97.00 -7.312
98.00 -6.588
99.00 -5.957
100.00 -5.609
101.00 -5.155
102.00 -4.762
103.00 -4.421
104.00 -3.904
105.00 -3.636
106.00 -3.355
107.00 -3.145
108.00 -3.027
109.00 -2.815
110.00 -2.795
111.00 -2.625
112.00 -2.627
113.00 -2.735
114.00 -2.785
115.00 -2.735
116.00 -3.044
117.00 -3.317
118.00 -3.485
119.00 -3.746
120.00 -4.119
121.00 -4.395
122.00 -4.815
123.00 -5.235
124.00 -5.560
125.00 -6.145
126.00 -6.828
127.00 -7.504
128.00 -8.083
129.00 -8.879
130.00 -9.809
131.00 -10.618
132.00 -11.277
133.00 -12.234
134.00 -12.659
135.00 -12.862
136.00 -12.966
137.00 -12.078
138.00 -11.261
139.00 -10.610
140.00 -9.705
141.00 -8.834
142.00 -7.763
143.00 -6.935
144.00 -5.980
145.00 -5.319
146.00 -4.592
147.00 -3.851
148.00 -3.372
149.00 -2.694
150.00 -2.260
151.00 -1.691
152.00 -1.317
153.00 -0.803
154.00 -0.404
155.00 -0.029
156.00 0.293
157.00 0.637
158.00 0.945
159.00 1.235
160.00 1.471
161.00 1.716
162.00 1.942
163.00 2.169
164.00 2.354
165.00 2.578
166.00 2.741
167.00 2.797
168.00 2.968
169.00 3.071
170.00 3.240
171.00 3.318
172.00 3.342
173.00 3.393
174.00 3.513
175.00 3.457
176.00 3.511
177.00 3.519
178.00 3.524
179.00 3.491
180.00 3.469
