Ant32 Data File V1.0
Date=21/03/2022
Time=09:45:38
Operator=Cyril
Title=irid
Remarks=Freq. = 1,618 GHz
ScanAxis=Theta
StepAxis=Phi : 0 deg
StepPosition=0
StepUnit=deg
FreqValue=1.618000
RecordIncrement=1
XyzImgAxis=0
XyzImgLabel=0
Abscissa=deg
Ordinate=dBi
Data#1
-180.00 3.317
-179.00 3.283
-178.00 3.229
-177.00 3.138
-176.00 3.081
-175.00 2.989
-174.00 2.861
-173.00 2.775
-172.00 2.654
-171.00 2.474
-170.00 2.252
-169.00 2.094
-168.00 1.889
-167.00 1.698
-166.00 1.504
-165.00 1.277
-164.00 1.048
-163.00 0.751
-162.00 0.511
-161.00 0.176
-160.00 -0.163
-159.00 -0.452
-158.00 -0.783
-157.00 -1.167
-156.00 -1.557
-155.00 -1.988
-154.00 -2.434
-153.00 -2.820
-152.00 -3.258
-151.00 -3.741
-150.00 -4.123
-149.00 -4.525
-148.00 -5.021
-147.00 -5.501
-146.00 -6.059
-145.00 -6.293
-144.00 -6.792
-143.00 -7.241
-142.00 -7.300
-141.00 -7.896
-140.00 -7.990
-139.00 -8.318
-138.00 -8.400
-137.00 -8.824
-136.00 -8.976
-135.00 -8.882
-134.00 -9.272
-133.00 -9.612
-132.00 -9.492
-131.00 -9.869
-130.00 -9.908
-129.00 -10.345
-128.00 -10.583
-127.00 -11.123
-126.00 -11.532
-125.00 -11.759
-124.00 -12.283
-123.00 -12.884
-122.00 -13.263
-121.00 -14.340
-120.00 -15.144
-119.00 -15.126
-118.00 -15.797
-117.00 -17.170
-116.00 -17.230
-115.00 -17.513
-114.00 -18.393
-113.00 -18.630
-112.00 -18.963
-111.00 -18.258
-110.00 -18.458
-109.00 -17.835
-108.00 -17.181
-107.00 -16.444
-106.00 -16.195
-105.00 -16.167
-104.00 -15.677
-103.00 -15.276
-102.00 -15.278
-101.00 -15.308
-100.00 -14.679
-99.00 -14.979
-98.00 -15.081
-97.00 -15.700
-96.00 -15.955
-95.00 -16.730
-94.00 -16.562
-93.00 -17.088
-92.00 -18.017
-91.00 -19.472
-90.00 -20.541
-89.00 -21.172
-88.00 -23.462
-87.00 -24.527
-86.00 -24.202
-85.00 -24.263
-84.00 -23.414
-83.00 -22.968
-82.00 -21.959
-81.00 -20.222
-80.00 -19.222
-79.00 -18.670
-78.00 -17.499
-77.00 -16.737
-76.00 -16.224
-75.00 -15.814
-74.00 -15.035
-73.00 -14.579
-72.00 -14.455
-71.00 -13.848
-70.00 -13.556
-69.00 -13.793
-68.00 -13.772
-67.00 -13.359
-66.00 -13.430
-65.00 -13.385
-64.00 -13.737
-63.00 -14.482
-62.00 -14.438
-61.00 -14.990
-60.00 -15.817
-59.00 -16.488
-58.00 -16.661
-57.00 -17.108
-56.00 -18.240
-55.00 -20.001
-54.00 -21.813
-53.00 -22.774
-52.00 -24.611
-51.00 -26.990
-50.00 -26.577
-49.00 -27.438
-48.00 -28.564
-47.00 -25.423
-46.00 -23.993
-45.00 -21.254
-44.00 -19.911
-43.00 -18.534
-42.00 -18.746
-41.00 -16.503
-40.00 -16.126
-39.00 -15.329
-38.00 -14.255
-37.00 -13.824
-36.00 -13.126
-35.00 -12.477
-34.00 -12.236
-33.00 -11.680
-32.00 -11.535
-31.00 -11.269
-30.00 -10.622
-29.00 -10.504
-28.00 -10.304
-27.00 -9.990
-26.00 -9.917
-25.00 -9.711
-24.00 -9.497
-23.00 -9.486
-22.00 -9.454
-21.00 -9.430
-20.00 -9.187
-19.00 -9.291
-18.00 -9.329
-17.00 -9.157
-16.00 -9.253
-15.00 -9.392
-14.00 -9.406
-13.00 -9.409
-12.00 -9.306
-11.00 -9.229
-10.00 -9.553
-9.00 -9.638
-8.00 -9.660
-7.00 -9.491
-6.00 -9.650
-5.00 -9.941
-4.00 -9.965
-3.00 -9.863
-2.00 -10.090
-1.00 -10.149
0.00 -10.154
1.00 -10.332
2.00 -10.396
3.00 -10.408
4.00 -10.517
5.00 -10.605
6.00 -10.851
7.00 -10.772
8.00 -10.933
9.00 -10.921
10.00 -11.334
11.00 -11.403
12.00 -11.422
13.00 -11.512
14.00 -11.918
15.00 -11.492
16.00 -11.837
17.00 -11.675
18.00 -11.860
19.00 -12.172
20.00 -12.326
21.00 -12.306
22.00 -12.590
23.00 -12.495
24.00 -13.023
25.00 -12.364
26.00 -12.748
27.00 -13.086
28.00 -12.849
29.00 -13.219
30.00 -13.231
31.00 -13.188
32.00 -13.468
33.00 -13.328
34.00 -13.903
35.00 -13.829
36.00 -13.910
37.00 -14.285
38.00 -14.378
39.00 -14.234
40.00 -14.236
41.00 -14.840
42.00 -14.475
43.00 -14.513
44.00 -14.705
45.00 -14.587
46.00 -14.710
47.00 -14.647
48.00 -14.646
49.00 -14.880
50.00 -14.194
51.00 -14.200
52.00 -14.263
53.00 -13.975
54.00 -13.967
55.00 -13.271
56.00 -13.496
57.00 -13.015
58.00 -12.924
59.00 -13.011
60.00 -12.707
61.00 -12.433
62.00 -12.261
63.00 -12.133
64.00 -11.773
65.00 -11.769
66.00 -11.306
67.00 -11.525
68.00 -10.988
69.00 -11.075
70.00 -10.638
71.00 -10.480
72.00 -10.544
73.00 -10.198
74.00 -10.148
75.00 -10.111
76.00 -9.584
77.00 -9.726
78.00 -9.674
79.00 -9.381
80.00 -9.433
81.00 -9.584
82.00 -9.250
83.00 -9.671
84.00 -9.464
85.00 -9.375
86.00 -9.322
87.00 -9.229
88.00 -9.234
89.00 -9.196
90.00 -9.151
91.00 -9.029
92.00 -8.761
93.00 -8.202
94.00 -8.266
95.00 -8.123
96.00 -7.804
97.00 -7.475
98.00 -7.190
99.00 -6.780
100.00 -6.550
101.00 -6.067
102.00 -5.821
103.00 -5.434
104.00 -5.067
105.00 -4.765
106.00 -4.346
107.00 -4.157
108.00 -3.977
109.00 -3.713
110.00 -3.421
111.00 -3.240
112.00 -3.121
113.00 -3.029
114.00 -2.890
115.00 -2.747
116.00 -2.751
117.00 -2.666
118.00 -2.610
119.00 -2.725
120.00 -2.809
121.00 -2.736
122.00 -2.870
123.00 -3.052
124.00 -3.225
125.00 -3.380
126.00 -3.764
127.00 -3.954
128.00 -4.281
129.00 -4.550
130.00 -5.117
131.00 -5.387
132.00 -5.738
133.00 -6.341
134.00 -6.687
135.00 -7.280
136.00 -7.501
137.00 -7.965
138.00 -7.986
139.00 -8.044
140.00 -7.717
141.00 -7.729
142.00 -7.232
143.00 -6.598
144.00 -6.007
145.00 -5.445
146.00 -4.757
147.00 -4.139
148.00 -3.684
149.00 -3.050
150.00 -2.498
151.00 -1.950
152.00 -1.440
153.00 -1.010
154.00 -0.637
155.00 -0.241
156.00 0.231
157.00 0.517
158.00 0.874
159.00 1.195
160.00 1.443
161.00 1.681
162.00 1.891
163.00 2.149
164.00 2.300
165.00 2.473
166.00 2.699
167.00 2.789
168.00 2.868
169.00 3.048
170.00 3.133
171.00 3.266
172.00 3.300
173.00 3.309
174.00 3.381
175.00 3.386
176.00 3.430
177.00 3.429
178.00 3.419
179.00 3.348
180.00 3.301
