Ant32 Data File V1.0
Date=21/03/2022
Time=09:45:38
Operator=Cyril
Title=irid
Remarks=Freq. = 1,623 GHz
ScanAxis=Theta
StepAxis=Phi : 0 deg
StepPosition=0
StepUnit=deg
FreqValue=1.623000
RecordIncrement=1
XyzImgAxis=0
XyzImgLabel=0
Abscissa=deg
Ordinate=dBi
Data#1
-180.00 3.139
-179.00 3.111
-178.00 3.024
-177.00 2.913
-176.00 2.859
-175.00 2.759
-174.00 2.670
-173.00 2.549
-172.00 2.401
-171.00 2.248
-170.00 2.085
-169.00 1.959
-168.00 1.710
-167.00 1.466
-166.00 1.243
-165.00 0.993
-164.00 0.694
-163.00 0.543
-162.00 0.066
-161.00 -0.258
-160.00 -0.525
-159.00 -0.929
-158.00 -1.318
-157.00 -1.660
-156.00 -2.114
-155.00 -2.524
-154.00 -2.965
-153.00 -3.513
-152.00 -3.976
-151.00 -4.514
-150.00 -5.043
-149.00 -5.520
-148.00 -6.040
-147.00 -6.664
-146.00 -7.002
-145.00 -7.575
-144.00 -7.928
-143.00 -8.503
-142.00 -8.715
-141.00 -9.034
-140.00 -9.381
-139.00 -9.662
-138.00 -9.610
-137.00 -9.639
-136.00 -9.555
-135.00 -9.598
-134.00 -9.649
-133.00 -9.656
-132.00 -9.356
-131.00 -9.330
-130.00 -9.319
-129.00 -9.473
-128.00 -9.578
-127.00 -9.825
-126.00 -9.708
-125.00 -10.044
-124.00 -10.082
-123.00 -10.059
-122.00 -10.485
-121.00 -10.776
-120.00 -11.105
-119.00 -11.523
-118.00 -11.254
-117.00 -11.681
-116.00 -12.138
-115.00 -12.150
-114.00 -12.501
-113.00 -12.559
-112.00 -12.093
-111.00 -11.942
-110.00 -11.870
-109.00 -11.879
-108.00 -11.890
-107.00 -11.398
-106.00 -11.124
-105.00 -11.428
-104.00 -10.824
-103.00 -10.902
-102.00 -10.812
-101.00 -10.621
-100.00 -10.507
-99.00 -10.445
-98.00 -10.365
-97.00 -10.482
-96.00 -10.860
-95.00 -10.911
-94.00 -10.716
-93.00 -11.156
-92.00 -11.348
-91.00 -11.593
-90.00 -11.737
-89.00 -12.195
-88.00 -12.501
-87.00 -13.149
-86.00 -13.737
-85.00 -13.867
-84.00 -13.905
-83.00 -14.776
-82.00 -14.946
-81.00 -14.953
-80.00 -14.960
-79.00 -14.897
-78.00 -14.381
-77.00 -13.933
-76.00 -13.775
-75.00 -13.324
-74.00 -12.825
-73.00 -12.289
-72.00 -11.825
-71.00 -11.280
-70.00 -10.800
-69.00 -10.640
-68.00 -10.417
-67.00 -9.611
-66.00 -9.814
-65.00 -9.487
-64.00 -9.093
-63.00 -9.226
-62.00 -9.047
-61.00 -8.920
-60.00 -8.857
-59.00 -8.880
-58.00 -8.874
-57.00 -9.086
-56.00 -9.041
-55.00 -9.189
-54.00 -9.181
-53.00 -9.476
-52.00 -9.628
-51.00 -9.918
-50.00 -10.080
-49.00 -10.218
-48.00 -10.254
-47.00 -10.931
-46.00 -11.019
-45.00 -11.488
-44.00 -11.900
-43.00 -12.128
-42.00 -12.428
-41.00 -12.901
-40.00 -13.076
-39.00 -13.297
-38.00 -13.482
-37.00 -13.467
-36.00 -13.739
-35.00 -13.907
-34.00 -13.694
-33.00 -13.617
-32.00 -13.263
-31.00 -13.404
-30.00 -13.740
-29.00 -13.232
-28.00 -12.666
-27.00 -12.799
-26.00 -12.569
-25.00 -12.329
-24.00 -12.208
-23.00 -11.915
-22.00 -12.035
-21.00 -11.903
-20.00 -11.467
-19.00 -11.318
-18.00 -11.181
-17.00 -10.865
-16.00 -10.874
-15.00 -10.671
-14.00 -10.646
-13.00 -10.581
-12.00 -10.544
-11.00 -10.463
-10.00 -10.480
-9.00 -10.364
-8.00 -10.418
-7.00 -10.479
-6.00 -10.477
-5.00 -10.246
-4.00 -10.301
-3.00 -10.399
-2.00 -10.635
-1.00 -10.370
0.00 -10.834
1.00 -10.708
2.00 -10.725
3.00 -10.848
4.00 -10.819
5.00 -10.745
6.00 -10.838
7.00 -10.953
8.00 -11.336
9.00 -10.934
10.00 -11.270
11.00 -11.571
12.00 -11.660
13.00 -11.459
14.00 -11.942
15.00 -12.052
16.00 -11.816
17.00 -12.313
18.00 -12.435
19.00 -12.017
20.00 -12.679
21.00 -12.515
22.00 -13.020
23.00 -12.812
24.00 -12.861
25.00 -13.094
26.00 -13.223
27.00 -12.879
28.00 -13.582
29.00 -13.570
30.00 -13.692
31.00 -13.742
32.00 -14.167
33.00 -13.916
34.00 -14.017
35.00 -14.122
36.00 -14.462
37.00 -14.549
38.00 -14.436
39.00 -14.489
40.00 -14.184
41.00 -14.836
42.00 -14.797
43.00 -14.650
44.00 -14.872
45.00 -14.882
46.00 -14.939
47.00 -15.488
48.00 -15.310
49.00 -15.774
50.00 -15.970
51.00 -15.851
52.00 -16.402
53.00 -16.509
54.00 -16.567
55.00 -16.991
56.00 -17.657
57.00 -18.485
58.00 -18.307
59.00 -19.026
60.00 -19.142
61.00 -19.207
62.00 -19.028
63.00 -18.866
64.00 -19.260
65.00 -18.064
66.00 -17.779
67.00 -16.644
68.00 -15.807
69.00 -15.053
70.00 -14.354
71.00 -13.373
72.00 -12.670
73.00 -12.281
74.00 -11.880
75.00 -11.243
76.00 -10.755
77.00 -10.129
78.00 -9.644
79.00 -9.618
80.00 -9.511
81.00 -9.052
82.00 -8.919
83.00 -8.721
84.00 -8.662
85.00 -8.572
86.00 -8.290
87.00 -8.173
88.00 -8.376
89.00 -8.025
90.00 -8.050
91.00 -8.054
92.00 -8.079
93.00 -7.867
94.00 -7.869
95.00 -7.545
96.00 -7.202
97.00 -6.992
98.00 -6.991
99.00 -6.656
100.00 -6.319
101.00 -6.118
102.00 -5.822
103.00 -5.374
104.00 -4.987
105.00 -4.719
106.00 -4.358
107.00 -4.064
108.00 -3.827
109.00 -3.550
110.00 -3.244
111.00 -3.060
112.00 -2.970
113.00 -2.733
114.00 -2.602
115.00 -2.496
116.00 -2.423
117.00 -2.424
118.00 -2.405
119.00 -2.326
120.00 -2.400
121.00 -2.481
122.00 -2.593
123.00 -2.694
124.00 -2.783
125.00 -3.069
126.00 -3.264
127.00 -3.607
128.00 -3.778
129.00 -4.285
130.00 -4.706
131.00 -5.098
132.00 -5.390
133.00 -6.044
134.00 -6.453
135.00 -7.001
136.00 -7.590
137.00 -8.109
138.00 -8.281
139.00 -8.326
140.00 -8.424
141.00 -8.309
142.00 -8.083
143.00 -7.425
144.00 -6.897
145.00 -6.208
146.00 -5.559
147.00 -4.880
148.00 -4.194
149.00 -3.653
150.00 -2.994
151.00 -2.417
152.00 -1.959
153.00 -1.481
154.00 -1.025
155.00 -0.634
156.00 -0.188
157.00 0.213
158.00 0.560
159.00 0.834
160.00 1.076
161.00 1.355
162.00 1.632
163.00 1.807
164.00 2.017
165.00 2.276
166.00 2.408
167.00 2.507
168.00 2.713
169.00 2.820
170.00 2.910
171.00 3.012
172.00 3.063
173.00 3.153
174.00 3.180
175.00 3.173
176.00 3.194
177.00 3.196
178.00 3.181
179.00 3.230
180.00 3.146
