Ant32 Data File V1.0
Date=21/03/2022
Time=09:45:38
Operator=Cyril
Title=irid
Remarks=Freq. = 1,628 GHz
ScanAxis=Theta
StepAxis=Phi : 0 deg
StepPosition=0
StepUnit=deg
FreqValue=1.628000
RecordIncrement=1
XyzImgAxis=0
XyzImgLabel=0
Abscissa=deg
Ordinate=dBi
Data#1
-180.00 2.156
-179.00 2.102
-178.00 2.046
-177.00 1.980
-176.00 1.902
-175.00 1.830
-174.00 1.691
-173.00 1.572
-172.00 1.431
-171.00 1.272
-170.00 1.106
-169.00 0.783
-168.00 0.653
-167.00 0.440
-166.00 0.234
-165.00 0.034
-164.00 -0.320
-163.00 -0.571
-162.00 -0.994
-161.00 -1.390
-160.00 -1.670
-159.00 -2.012
-158.00 -2.475
-157.00 -2.862
-156.00 -3.331
-155.00 -3.830
-154.00 -4.224
-153.00 -4.715
-152.00 -5.461
-151.00 -5.991
-150.00 -6.530
-149.00 -7.118
-148.00 -7.497
-147.00 -8.164
-146.00 -8.761
-145.00 -9.108
-144.00 -9.543
-143.00 -9.699
-142.00 -9.866
-141.00 -10.115
-140.00 -10.027
-139.00 -9.669
-138.00 -9.711
-137.00 -9.423
-136.00 -9.321
-135.00 -9.001
-134.00 -9.006
-133.00 -8.724
-132.00 -8.360
-131.00 -8.328
-130.00 -8.147
-129.00 -8.157
-128.00 -7.831
-127.00 -8.110
-126.00 -8.008
-125.00 -8.137
-124.00 -8.162
-123.00 -8.351
-122.00 -8.510
-121.00 -8.584
-120.00 -8.796
-119.00 -8.809
-118.00 -9.236
-117.00 -9.367
-116.00 -9.583
-115.00 -9.832
-114.00 -9.886
-113.00 -10.051
-112.00 -10.360
-111.00 -10.368
-110.00 -10.337
-109.00 -10.127
-108.00 -10.331
-107.00 -10.014
-106.00 -9.881
-105.00 -9.712
-104.00 -9.419
-103.00 -9.330
-102.00 -9.054
-101.00 -8.994
-100.00 -8.950
-99.00 -8.604
-98.00 -8.429
-97.00 -8.399
-96.00 -8.195
-95.00 -8.188
-94.00 -7.941
-93.00 -8.268
-92.00 -8.069
-91.00 -7.903
-90.00 -8.370
-89.00 -8.473
-88.00 -8.415
-87.00 -8.846
-86.00 -8.956
-85.00 -9.292
-84.00 -9.211
-83.00 -9.661
-82.00 -9.914
-81.00 -10.124
-80.00 -10.577
-79.00 -10.522
-78.00 -10.727
-77.00 -10.609
-76.00 -10.935
-75.00 -10.693
-74.00 -11.024
-73.00 -10.546
-72.00 -10.263
-71.00 -10.254
-70.00 -9.985
-69.00 -10.033
-68.00 -9.264
-67.00 -9.097
-66.00 -9.005
-65.00 -8.345
-64.00 -8.236
-63.00 -7.893
-62.00 -7.840
-61.00 -7.448
-60.00 -7.410
-59.00 -7.231
-58.00 -6.867
-57.00 -6.916
-56.00 -6.886
-55.00 -6.849
-54.00 -6.634
-53.00 -6.634
-52.00 -6.790
-51.00 -6.587
-50.00 -6.682
-49.00 -6.588
-48.00 -6.711
-47.00 -6.845
-46.00 -6.694
-45.00 -6.831
-44.00 -6.779
-43.00 -6.999
-42.00 -7.061
-41.00 -7.148
-40.00 -7.160
-39.00 -7.482
-38.00 -7.770
-37.00 -7.634
-36.00 -7.898
-35.00 -8.030
-34.00 -7.874
-33.00 -8.174
-32.00 -8.187
-31.00 -8.689
-30.00 -8.636
-29.00 -8.578
-28.00 -8.719
-27.00 -8.862
-26.00 -8.872
-25.00 -8.986
-24.00 -8.892
-23.00 -9.058
-22.00 -8.934
-21.00 -9.118
-20.00 -8.899
-19.00 -8.950
-18.00 -8.956
-17.00 -8.662
-16.00 -8.848
-15.00 -8.826
-14.00 -8.639
-13.00 -8.694
-12.00 -8.617
-11.00 -8.396
-10.00 -8.536
-9.00 -8.517
-8.00 -8.530
-7.00 -8.480
-6.00 -8.458
-5.00 -8.477
-4.00 -8.395
-3.00 -8.229
-2.00 -8.432
-1.00 -8.195
0.00 -8.316
1.00 -8.336
2.00 -8.286
3.00 -8.149
4.00 -8.199
5.00 -8.362
6.00 -8.247
7.00 -8.412
8.00 -8.515
9.00 -8.276
10.00 -8.616
11.00 -8.258
12.00 -8.381
13.00 -8.392
14.00 -8.472
15.00 -8.301
16.00 -8.510
17.00 -8.444
18.00 -8.360
19.00 -8.474
20.00 -8.576
21.00 -8.421
22.00 -8.509
23.00 -8.445
24.00 -8.600
25.00 -8.491
26.00 -8.380
27.00 -8.365
28.00 -8.581
29.00 -8.298
30.00 -8.622
31.00 -8.413
32.00 -8.381
33.00 -8.335
34.00 -8.464
35.00 -8.329
36.00 -8.387
37.00 -8.372
38.00 -8.458
39.00 -8.413
40.00 -8.305
41.00 -8.489
42.00 -8.431
43.00 -8.481
44.00 -8.723
45.00 -8.525
46.00 -8.633
47.00 -8.542
48.00 -8.646
49.00 -8.656
50.00 -8.744
51.00 -8.879
52.00 -8.837
53.00 -8.787
54.00 -8.811
55.00 -8.941
56.00 -9.008
57.00 -9.275
58.00 -8.931
59.00 -9.413
60.00 -9.524
61.00 -9.483
62.00 -9.312
63.00 -9.474
64.00 -9.431
65.00 -9.476
66.00 -9.377
67.00 -9.415
68.00 -9.134
69.00 -8.956
70.00 -8.748
71.00 -8.569
72.00 -8.399
73.00 -7.995
74.00 -7.989
75.00 -7.752
76.00 -7.697
77.00 -7.346
78.00 -7.097
79.00 -6.850
80.00 -6.658
81.00 -6.791
82.00 -6.450
83.00 -6.378
84.00 -6.380
85.00 -6.269
86.00 -6.228
87.00 -6.173
88.00 -6.234
89.00 -6.163
90.00 -5.929
91.00 -5.978
92.00 -5.931
93.00 -5.790
94.00 -5.826
95.00 -5.713
96.00 -5.575
97.00 -5.362
98.00 -5.361
99.00 -5.109
100.00 -5.029
101.00 -4.796
102.00 -4.659
103.00 -4.314
104.00 -4.125
105.00 -3.893
106.00 -3.660
107.00 -3.500
108.00 -3.300
109.00 -3.070
110.00 -2.903
111.00 -2.681
112.00 -2.584
113.00 -2.451
114.00 -2.326
115.00 -2.210
116.00 -2.221
117.00 -2.248
118.00 -2.193
119.00 -2.281
120.00 -2.260
121.00 -2.418
122.00 -2.458
123.00 -2.640
124.00 -2.909
125.00 -3.039
126.00 -3.260
127.00 -3.539
128.00 -3.825
129.00 -4.182
130.00 -4.548
131.00 -4.994
132.00 -5.649
133.00 -5.990
134.00 -6.375
135.00 -7.154
136.00 -7.509
137.00 -7.897
138.00 -8.563
139.00 -8.833
140.00 -8.753
141.00 -8.791
142.00 -8.662
143.00 -8.091
144.00 -7.567
145.00 -6.968
146.00 -6.495
147.00 -5.704
148.00 -5.081
149.00 -4.483
150.00 -3.970
151.00 -3.400
152.00 -2.875
153.00 -2.486
154.00 -1.874
155.00 -1.534
156.00 -1.100
157.00 -0.681
158.00 -0.504
159.00 -0.097
160.00 0.211
161.00 0.371
162.00 0.672
163.00 0.905
164.00 1.136
165.00 1.295
166.00 1.432
167.00 1.676
168.00 1.734
169.00 1.858
170.00 1.996
171.00 2.070
172.00 2.092
173.00 2.148
174.00 2.277
175.00 2.250
176.00 2.256
177.00 2.199
178.00 2.215
179.00 2.232
180.00 2.161
