Ant32 Data File V1.0
Date=21/03/2022
Time=09:49:05
Operator=Cyril
Title=irid
Remarks=Freq. = 1,626 GHz
ScanAxis=Theta
StepAxis=Phi : 90 deg
StepPosition=90
StepUnit=deg
FreqValue=1.626000
RecordIncrement=1
XyzImgAxis=0
XyzImgLabel=0
Abscissa=deg
Ordinate=dBi
Data#1
-180.00 2.588
-179.00 2.546
-178.00 2.568
-177.00 2.435
-176.00 2.449
-175.00 2.317
-174.00 2.225
-173.00 2.143
-172.00 1.975
-171.00 1.798
-170.00 1.635
-169.00 1.486
-168.00 1.304
-167.00 1.053
-166.00 0.912
-165.00 0.617
-164.00 0.369
-163.00 0.087
-162.00 -0.271
-161.00 -0.602
-160.00 -1.018
-159.00 -1.384
-158.00 -1.709
-157.00 -2.172
-156.00 -2.689
-155.00 -3.075
-154.00 -3.718
-153.00 -4.226
-152.00 -4.855
-151.00 -5.403
-150.00 -6.268
-149.00 -6.975
-148.00 -7.583
-147.00 -8.344
-146.00 -9.421
-145.00 -10.415
-144.00 -11.240
-143.00 -12.364
-142.00 -13.471
-141.00 -14.374
-140.00 -15.684
-139.00 -16.637
-138.00 -16.451
-137.00 -17.071
-136.00 -16.226
-135.00 -16.032
-134.00 -15.306
-133.00 -15.160
-132.00 -14.907
-131.00 -14.006
-130.00 -13.864
-129.00 -13.396
-128.00 -13.039
-127.00 -12.804
-126.00 -12.675
-125.00 -12.715
-124.00 -12.286
-123.00 -12.436
-122.00 -12.396
-121.00 -12.325
-120.00 -12.443
-119.00 -12.425
-118.00 -12.439
-117.00 -12.667
-116.00 -12.717
-115.00 -12.664
-114.00 -12.850
-113.00 -12.626
-112.00 -12.933
-111.00 -12.827
-110.00 -13.037
-109.00 -13.180
-108.00 -13.218
-107.00 -13.094
-106.00 -13.271
-105.00 -13.365
-104.00 -13.723
-103.00 -14.046
-102.00 -13.524
-101.00 -13.416
-100.00 -13.805
-99.00 -13.728
-98.00 -13.898
-97.00 -14.026
-96.00 -14.014
-95.00 -14.154
-94.00 -13.937
-93.00 -13.631
-92.00 -14.065
-91.00 -14.102
-90.00 -14.169
-89.00 -14.281
-88.00 -14.145
-87.00 -13.802
-86.00 -14.458
-85.00 -14.073
-84.00 -13.843
-83.00 -13.866
-82.00 -14.052
-81.00 -13.561
-80.00 -13.778
-79.00 -13.764
-78.00 -14.105
-77.00 -13.844
-76.00 -14.195
-75.00 -14.301
-74.00 -13.659
-73.00 -13.615
-72.00 -13.789
-71.00 -13.748
-70.00 -13.913
-69.00 -13.654
-68.00 -14.051
-67.00 -13.616
-66.00 -13.617
-65.00 -13.574
-64.00 -13.449
-63.00 -13.563
-62.00 -13.383
-61.00 -13.134
-60.00 -13.191
-59.00 -12.849
-58.00 -12.935
-57.00 -12.560
-56.00 -12.234
-55.00 -12.030
-54.00 -12.034
-53.00 -11.290
-52.00 -10.840
-51.00 -11.130
-50.00 -10.587
-49.00 -10.315
-48.00 -10.103
-47.00 -10.080
-46.00 -9.761
-45.00 -9.428
-44.00 -9.066
-43.00 -8.981
-42.00 -8.737
-41.00 -8.381
-40.00 -8.562
-39.00 -8.126
-38.00 -8.240
-37.00 -7.987
-36.00 -7.820
-35.00 -7.580
-34.00 -7.659
-33.00 -7.598
-32.00 -7.280
-31.00 -7.425
-30.00 -7.476
-29.00 -7.284
-28.00 -7.259
-27.00 -7.264
-26.00 -7.440
-25.00 -7.462
-24.00 -7.335
-23.00 -7.406
-22.00 -7.402
-21.00 -7.678
-20.00 -7.647
-19.00 -7.676
-18.00 -7.572
-17.00 -7.650
-16.00 -7.965
-15.00 -7.937
-14.00 -7.791
-13.00 -7.985
-12.00 -8.026
-11.00 -8.078
-10.00 -8.115
-9.00 -8.234
-8.00 -8.363
-7.00 -8.484
-6.00 -8.664
-5.00 -8.614
-4.00 -8.679
-3.00 -8.878
-2.00 -8.612
-1.00 -8.907
0.00 -8.820
1.00 -9.035
2.00 -9.135
3.00 -9.260
4.00 -9.367
5.00 -9.560
6.00 -9.909
7.00 -9.730
8.00 -9.822
9.00 -9.914
10.00 -9.961
11.00 -10.051
12.00 -10.229
13.00 -10.286
14.00 -10.497
15.00 -10.646
16.00 -10.820
17.00 -10.735
18.00 -10.756
19.00 -11.232
20.00 -11.076
21.00 -11.208
22.00 -11.317
23.00 -11.095
24.00 -10.890
25.00 -11.065
26.00 -10.950
27.00 -10.827
28.00 -10.880
29.00 -10.907
30.00 -10.734
31.00 -10.660
32.00 -10.672
33.00 -10.539
34.00 -10.429
35.00 -10.309
36.00 -10.360
37.00 -10.311
38.00 -10.415
39.00 -10.116
40.00 -10.204
41.00 -10.270
42.00 -10.016
43.00 -10.163
44.00 -10.067
45.00 -10.017
46.00 -10.002
47.00 -9.978
48.00 -9.703
49.00 -10.024
50.00 -9.946
51.00 -10.167
52.00 -10.082
53.00 -10.149
54.00 -10.244
55.00 -10.257
56.00 -10.646
57.00 -10.605
58.00 -10.571
59.00 -10.802
60.00 -10.755
61.00 -11.141
62.00 -11.241
63.00 -11.470
64.00 -11.756
65.00 -11.909
66.00 -12.300
67.00 -12.353
68.00 -13.009
69.00 -12.997
70.00 -13.947
71.00 -13.739
72.00 -14.149
73.00 -14.784
74.00 -15.020
75.00 -15.823
76.00 -15.768
77.00 -16.815
78.00 -17.632
79.00 -17.901
80.00 -19.198
81.00 -19.770
82.00 -20.342
83.00 -22.058
84.00 -23.344
85.00 -24.577
86.00 -27.355
87.00 -27.786
88.00 -24.512
89.00 -23.600
90.00 -20.850
91.00 -18.212
92.00 -17.006
93.00 -15.583
94.00 -14.360
95.00 -13.051
96.00 -12.085
97.00 -10.904
98.00 -10.054
99.00 -9.403
100.00 -8.565
101.00 -7.994
102.00 -7.641
103.00 -7.068
104.00 -6.653
105.00 -6.280
106.00 -6.201
107.00 -5.826
108.00 -5.719
109.00 -5.448
110.00 -5.389
111.00 -5.494
112.00 -5.403
113.00 -5.572
114.00 -5.628
115.00 -5.738
116.00 -6.049
117.00 -6.223
118.00 -6.571
119.00 -6.997
120.00 -7.440
121.00 -7.976
122.00 -8.548
123.00 -9.045
124.00 -9.689
125.00 -10.378
126.00 -11.372
127.00 -12.455
128.00 -13.426
129.00 -14.384
130.00 -15.640
131.00 -16.889
132.00 -17.291
133.00 -16.763
134.00 -16.722
135.00 -15.834
136.00 -14.469
137.00 -13.395
138.00 -11.818
139.00 -10.770
140.00 -9.685
141.00 -8.841
142.00 -8.105
143.00 -7.063
144.00 -6.462
145.00 -5.656
146.00 -5.059
147.00 -4.461
148.00 -3.947
149.00 -3.450
150.00 -2.960
151.00 -2.634
152.00 -2.043
153.00 -1.610
154.00 -1.243
155.00 -0.982
156.00 -0.556
157.00 -0.262
158.00 -0.032
159.00 0.288
160.00 0.510
161.00 0.841
162.00 1.043
163.00 1.211
164.00 1.529
165.00 1.627
166.00 1.801
167.00 1.948
168.00 2.086
169.00 2.197
170.00 2.277
171.00 2.353
172.00 2.452
173.00 2.530
174.00 2.558
175.00 2.640
176.00 2.652
177.00 2.663
178.00 2.616
179.00 2.635
180.00 2.631
