Ant32 Data File V1.0
Date=21/03/2022
Time=09:45:38
Operator=Cyril
Title=irid
Remarks=Freq. = 1,62 GHz
ScanAxis=Theta
StepAxis=Phi : 0 deg
StepPosition=0
StepUnit=deg
FreqValue=1.620000
RecordIncrement=1
XyzImgAxis=0
XyzImgLabel=0
Abscissa=deg
Ordinate=dBi
Data#1
-180.00 3.263
-179.00 3.298
-178.00 3.223
-177.00 3.192
-176.00 3.071
-175.00 2.986
-174.00 2.916
-173.00 2.791
-172.00 2.604
-171.00 2.448
-170.00 2.322
-169.00 2.125
-168.00 1.933
-167.00 1.672
-166.00 1.484
-165.00 1.228
-164.00 1.019
-163.00 0.683
-162.00 0.328
-161.00 0.069
-160.00 -0.285
-159.00 -0.602
-158.00 -0.914
-157.00 -1.316
-156.00 -1.740
-155.00 -2.109
-154.00 -2.552
-153.00 -2.938
-152.00 -3.398
-151.00 -3.908
-150.00 -4.341
-149.00 -4.883
-148.00 -5.470
-147.00 -5.856
-146.00 -6.286
-145.00 -6.807
-144.00 -7.287
-143.00 -7.529
-142.00 -8.082
-141.00 -8.440
-140.00 -8.636
-139.00 -8.894
-138.00 -8.991
-137.00 -9.207
-136.00 -9.334
-135.00 -9.553
-134.00 -9.675
-133.00 -9.669
-132.00 -9.634
-131.00 -10.030
-130.00 -10.097
-129.00 -10.628
-128.00 -10.383
-127.00 -10.694
-126.00 -11.050
-125.00 -11.538
-124.00 -11.553
-123.00 -12.225
-122.00 -12.630
-121.00 -12.794
-120.00 -13.434
-119.00 -14.056
-118.00 -14.698
-117.00 -14.744
-116.00 -15.171
-115.00 -15.479
-114.00 -15.302
-113.00 -15.301
-112.00 -15.367
-111.00 -15.595
-110.00 -14.976
-109.00 -14.680
-108.00 -14.333
-107.00 -14.121
-106.00 -14.053
-105.00 -13.616
-104.00 -13.532
-103.00 -13.122
-102.00 -13.296
-101.00 -13.049
-100.00 -13.249
-99.00 -13.286
-98.00 -13.037
-97.00 -13.194
-96.00 -13.799
-95.00 -14.399
-94.00 -14.736
-93.00 -15.167
-92.00 -16.066
-91.00 -16.717
-90.00 -17.052
-89.00 -18.755
-88.00 -20.074
-87.00 -21.569
-86.00 -22.295
-85.00 -26.477
-84.00 -26.567
-83.00 -27.093
-82.00 -25.556
-81.00 -22.449
-80.00 -21.450
-79.00 -20.085
-78.00 -17.739
-77.00 -17.564
-76.00 -16.021
-75.00 -15.003
-74.00 -14.445
-73.00 -13.777
-72.00 -13.645
-71.00 -12.777
-70.00 -12.907
-69.00 -12.573
-68.00 -12.154
-67.00 -12.029
-66.00 -11.790
-65.00 -11.713
-64.00 -11.171
-63.00 -11.492
-62.00 -11.717
-61.00 -11.853
-60.00 -12.089
-59.00 -12.375
-58.00 -12.438
-57.00 -12.928
-56.00 -13.200
-55.00 -13.750
-54.00 -14.260
-53.00 -14.838
-52.00 -14.792
-51.00 -15.521
-50.00 -16.354
-49.00 -16.779
-48.00 -18.447
-47.00 -18.860
-46.00 -19.899
-45.00 -20.211
-44.00 -21.942
-43.00 -22.692
-42.00 -22.049
-41.00 -21.740
-40.00 -21.786
-39.00 -20.824
-38.00 -19.429
-37.00 -18.890
-36.00 -17.316
-35.00 -16.458
-34.00 -16.184
-33.00 -15.289
-32.00 -14.547
-31.00 -14.221
-30.00 -14.040
-29.00 -13.316
-28.00 -13.243
-27.00 -12.860
-26.00 -12.148
-25.00 -12.032
-24.00 -11.831
-23.00 -11.456
-22.00 -11.201
-21.00 -10.997
-20.00 -11.066
-19.00 -10.798
-18.00 -10.715
-17.00 -10.808
-16.00 -10.720
-15.00 -10.731
-14.00 -10.634
-13.00 -10.684
-12.00 -10.701
-11.00 -10.650
-10.00 -10.487
-9.00 -10.787
-8.00 -10.794
-7.00 -10.499
-6.00 -10.971
-5.00 -10.779
-4.00 -10.949
-3.00 -11.028
-2.00 -10.836
-1.00 -11.039
0.00 -11.177
1.00 -11.452
2.00 -11.658
3.00 -11.583
4.00 -11.321
5.00 -11.963
6.00 -11.871
7.00 -12.034
8.00 -12.103
9.00 -12.410
10.00 -12.485
11.00 -12.804
12.00 -12.536
13.00 -12.980
14.00 -13.126
15.00 -13.272
16.00 -13.646
17.00 -13.414
18.00 -13.825
19.00 -13.939
20.00 -14.679
21.00 -14.146
22.00 -14.762
23.00 -15.257
24.00 -14.977
25.00 -15.422
26.00 -15.710
27.00 -16.013
28.00 -16.490
29.00 -16.916
30.00 -17.228
31.00 -17.822
32.00 -17.513
33.00 -18.459
34.00 -18.732
35.00 -18.556
36.00 -19.461
37.00 -19.753
38.00 -20.381
39.00 -20.564
40.00 -20.558
41.00 -21.264
42.00 -21.787
43.00 -21.422
44.00 -22.446
45.00 -21.599
46.00 -22.630
47.00 -22.748
48.00 -23.163
49.00 -22.952
50.00 -21.805
51.00 -23.544
52.00 -23.186
53.00 -22.005
54.00 -23.168
55.00 -23.117
56.00 -21.753
57.00 -21.542
58.00 -21.761
59.00 -21.015
60.00 -20.039
61.00 -20.353
62.00 -18.535
63.00 -18.823
64.00 -18.444
65.00 -17.830
66.00 -16.915
67.00 -15.527
68.00 -15.311
69.00 -14.790
70.00 -14.069
71.00 -13.534
72.00 -13.147
73.00 -12.477
74.00 -12.230
75.00 -11.502
76.00 -11.592
77.00 -11.000
78.00 -10.731
79.00 -10.724
80.00 -10.581
81.00 -10.408
82.00 -10.125
83.00 -10.187
84.00 -9.866
85.00 -9.841
86.00 -9.861
87.00 -9.984
88.00 -9.497
89.00 -9.613
90.00 -9.391
91.00 -9.326
92.00 -8.991
93.00 -8.994
94.00 -8.807
95.00 -8.608
96.00 -8.251
97.00 -7.921
98.00 -7.530
99.00 -7.231
100.00 -6.734
101.00 -6.590
102.00 -6.150
103.00 -5.700
104.00 -5.276
105.00 -5.012
106.00 -4.588
107.00 -4.234
108.00 -3.997
109.00 -3.732
110.00 -3.594
111.00 -3.290
112.00 -3.235
113.00 -3.070
114.00 -2.859
115.00 -2.842
116.00 -2.672
117.00 -2.661
118.00 -2.563
119.00 -2.679
120.00 -2.676
121.00 -2.740
122.00 -2.847
123.00 -2.929
124.00 -3.088
125.00 -3.277
126.00 -3.544
127.00 -3.800
128.00 -4.028
129.00 -4.453
130.00 -4.941
131.00 -5.428
132.00 -5.796
133.00 -6.270
134.00 -6.632
135.00 -7.196
136.00 -7.625
137.00 -7.945
138.00 -8.202
139.00 -8.322
140.00 -8.164
141.00 -7.818
142.00 -7.520
143.00 -6.988
144.00 -6.297
145.00 -5.751
146.00 -5.031
147.00 -4.395
148.00 -3.778
149.00 -3.192
150.00 -2.640
151.00 -2.083
152.00 -1.575
153.00 -1.162
154.00 -0.640
155.00 -0.279
156.00 0.060
157.00 0.535
158.00 0.779
159.00 1.035
160.00 1.411
161.00 1.572
162.00 1.892
163.00 2.121
164.00 2.276
165.00 2.498
166.00 2.667
167.00 2.791
168.00 2.894
169.00 3.084
170.00 3.128
171.00 3.239
172.00 3.289
173.00 3.370
174.00 3.396
175.00 3.389
176.00 3.450
177.00 3.450
178.00 3.367
179.00 3.386
180.00 3.339
