Ant32 Data File V1.0
Date=21/03/2022
Time=09:49:05
Operator=Cyril
Title=irid
Remarks=Freq. = 1,61 GHz
ScanAxis=Theta
StepAxis=Phi : 90 deg
StepPosition=90
StepUnit=deg
FreqValue=1.610000
RecordIncrement=1
XyzImgAxis=0
XyzImgLabel=0
Abscissa=deg
Ordinate=dBi
Data#1
-180.00 1.757
-179.00 1.688
-178.00 1.693
-177.00 1.622
-176.00 1.500
-175.00 1.394
-174.00 1.363
-173.00 1.142
-172.00 1.071
-171.00 0.879
-170.00 0.793
-169.00 0.571
-168.00 0.341
-167.00 0.150
-166.00 -0.145
-165.00 -0.332
-164.00 -0.598
-163.00 -0.808
-162.00 -1.202
-161.00 -1.499
-160.00 -1.976
-159.00 -2.264
-158.00 -2.724
-157.00 -3.130
-156.00 -3.683
-155.00 -4.215
-154.00 -4.753
-153.00 -5.454
-152.00 -6.069
-151.00 -6.685
-150.00 -7.766
-149.00 -8.559
-148.00 -9.517
-147.00 -10.498
-146.00 -11.483
-145.00 -12.750
-144.00 -13.743
-143.00 -14.381
-142.00 -15.701
-141.00 -17.004
-140.00 -16.555
-139.00 -16.818
-138.00 -16.321
-137.00 -15.484
-136.00 -14.414
-135.00 -13.682
-134.00 -12.974
-133.00 -12.546
-132.00 -11.873
-131.00 -10.920
-130.00 -10.787
-129.00 -10.659
-128.00 -10.260
-127.00 -10.068
-126.00 -9.751
-125.00 -9.833
-124.00 -9.771
-123.00 -9.865
-122.00 -9.774
-121.00 -9.622
-120.00 -9.830
-119.00 -9.935
-118.00 -10.169
-117.00 -10.153
-116.00 -10.694
-115.00 -10.890
-114.00 -11.021
-113.00 -11.760
-112.00 -12.254
-111.00 -11.890
-110.00 -12.627
-109.00 -12.542
-108.00 -12.804
-107.00 -13.262
-106.00 -12.658
-105.00 -12.587
-104.00 -12.745
-103.00 -12.509
-102.00 -12.182
-101.00 -11.835
-100.00 -11.693
-99.00 -11.279
-98.00 -10.863
-97.00 -10.576
-96.00 -10.365
-95.00 -9.999
-94.00 -9.866
-93.00 -9.964
-92.00 -9.885
-91.00 -9.668
-90.00 -9.601
-89.00 -9.598
-88.00 -9.594
-87.00 -9.679
-86.00 -9.774
-85.00 -9.989
-84.00 -10.109
-83.00 -10.541
-82.00 -10.593
-81.00 -10.738
-80.00 -11.045
-79.00 -11.207
-78.00 -11.396
-77.00 -11.531
-76.00 -11.807
-75.00 -12.000
-74.00 -11.662
-73.00 -11.615
-72.00 -11.837
-71.00 -11.516
-70.00 -11.525
-69.00 -11.017
-68.00 -10.909
-67.00 -10.554
-66.00 -10.250
-65.00 -10.027
-64.00 -9.662
-63.00 -9.152
-62.00 -9.097
-61.00 -8.712
-60.00 -8.477
-59.00 -8.427
-58.00 -8.017
-57.00 -7.804
-56.00 -7.875
-55.00 -7.396
-54.00 -7.515
-53.00 -7.295
-52.00 -7.372
-51.00 -7.240
-50.00 -7.164
-49.00 -7.079
-48.00 -7.135
-47.00 -7.113
-46.00 -7.184
-45.00 -7.153
-44.00 -7.185
-43.00 -7.205
-42.00 -7.194
-41.00 -7.381
-40.00 -7.394
-39.00 -7.428
-38.00 -7.412
-37.00 -7.627
-36.00 -7.648
-35.00 -7.820
-34.00 -7.810
-33.00 -7.871
-32.00 -7.917
-31.00 -7.790
-30.00 -8.000
-29.00 -8.070
-28.00 -8.050
-27.00 -8.092
-26.00 -8.300
-25.00 -8.208
-24.00 -8.321
-23.00 -8.339
-22.00 -8.502
-21.00 -8.220
-20.00 -8.443
-19.00 -8.503
-18.00 -8.581
-17.00 -8.581
-16.00 -8.540
-15.00 -8.742
-14.00 -8.531
-13.00 -8.414
-12.00 -8.431
-11.00 -8.473
-10.00 -8.464
-9.00 -8.514
-8.00 -8.208
-7.00 -8.315
-6.00 -8.323
-5.00 -8.288
-4.00 -8.073
-3.00 -8.100
-2.00 -7.995
-1.00 -7.786
0.00 -7.923
1.00 -7.856
2.00 -7.919
3.00 -8.003
4.00 -7.589
5.00 -7.588
6.00 -7.597
7.00 -7.463
8.00 -7.278
9.00 -7.243
10.00 -7.259
11.00 -7.126
12.00 -7.109
13.00 -6.795
14.00 -6.937
15.00 -6.760
16.00 -6.635
17.00 -6.505
18.00 -6.487
19.00 -6.321
20.00 -6.240
21.00 -6.251
22.00 -6.180
23.00 -6.026
24.00 -6.112
25.00 -5.932
26.00 -5.818
27.00 -5.702
28.00 -5.747
29.00 -5.659
30.00 -5.753
31.00 -5.714
32.00 -5.573
33.00 -5.615
34.00 -5.610
35.00 -5.610
36.00 -5.680
37.00 -5.712
38.00 -5.743
39.00 -5.710
40.00 -5.682
41.00 -5.805
42.00 -5.758
43.00 -5.878
44.00 -6.007
45.00 -6.203
46.00 -6.112
47.00 -6.070
48.00 -6.189
49.00 -6.374
50.00 -6.394
51.00 -6.626
52.00 -6.653
53.00 -6.612
54.00 -6.785
55.00 -6.861
56.00 -6.933
57.00 -6.978
58.00 -7.013
59.00 -6.879
60.00 -6.899
61.00 -6.766
62.00 -6.537
63.00 -6.421
64.00 -6.301
65.00 -6.106
66.00 -6.041
67.00 -5.765
68.00 -5.717
69.00 -5.493
70.00 -5.229
71.00 -4.993
72.00 -5.012
73.00 -4.759
74.00 -4.627
75.00 -4.502
76.00 -4.463
77.00 -4.347
78.00 -4.264
79.00 -4.433
80.00 -4.363
81.00 -4.523
82.00 -4.608
83.00 -4.773
84.00 -4.852
85.00 -5.061
86.00 -5.422
87.00 -5.462
88.00 -5.819
89.00 -6.168
90.00 -6.326
91.00 -6.535
92.00 -6.742
93.00 -6.984
94.00 -7.154
95.00 -7.215
96.00 -7.230
97.00 -7.201
98.00 -7.066
99.00 -6.752
100.00 -6.238
101.00 -6.047
102.00 -5.623
103.00 -5.198
104.00 -4.898
105.00 -4.277
106.00 -4.003
107.00 -3.632
108.00 -3.308
109.00 -3.329
110.00 -2.937
111.00 -2.756
112.00 -2.703
113.00 -2.570
114.00 -2.465
115.00 -2.548
116.00 -2.630
117.00 -2.699
118.00 -2.740
119.00 -2.929
120.00 -3.104
121.00 -3.444
122.00 -3.698
123.00 -3.985
124.00 -4.441
125.00 -4.925
126.00 -5.479
127.00 -5.898
128.00 -6.596
129.00 -7.471
130.00 -8.120
131.00 -9.180
132.00 -10.480
133.00 -11.601
134.00 -13.052
135.00 -14.670
136.00 -16.731
137.00 -18.844
138.00 -19.226
139.00 -18.420
140.00 -16.663
141.00 -15.082
142.00 -13.277
143.00 -11.552
144.00 -10.165
145.00 -8.973
146.00 -8.152
147.00 -7.102
148.00 -6.235
149.00 -5.387
150.00 -4.799
151.00 -4.132
152.00 -3.557
153.00 -3.023
154.00 -2.456
155.00 -2.105
156.00 -1.687
157.00 -1.338
158.00 -1.032
159.00 -0.660
160.00 -0.442
161.00 -0.008
162.00 0.151
163.00 0.334
164.00 0.582
165.00 0.726
166.00 0.907
167.00 1.098
168.00 1.254
169.00 1.334
170.00 1.439
171.00 1.522
172.00 1.601
173.00 1.696
174.00 1.750
175.00 1.810
176.00 1.775
177.00 1.807
178.00 1.816
179.00 1.799
180.00 1.796
