Ant32 Data File V1.0
Date=21/03/2022
Time=09:45:38
Operator=Cyril
Title=irid
Remarks=Freq. = 1,624 GHz
ScanAxis=Theta
StepAxis=Phi : 0 deg
StepPosition=0
StepUnit=deg
FreqValue=1.624000
RecordIncrement=1
XyzImgAxis=0
XyzImgLabel=0
Abscissa=deg
Ordinate=dBi
Data#1
-180.00 2.924
-179.00 2.927
-178.00 2.870
-177.00 2.807
-176.00 2.697
-175.00 2.602
-174.00 2.506
-173.00 2.371
-172.00 2.241
-171.00 2.091
-170.00 1.890
-169.00 1.691
-168.00 1.526
-167.00 1.324
-166.00 1.036
-165.00 0.803
-164.00 0.555
-163.00 0.247
-162.00 -0.034
-161.00 -0.371
-160.00 -0.745
-159.00 -1.057
-158.00 -1.477
-157.00 -1.877
-156.00 -2.214
-155.00 -2.698
-154.00 -3.325
-153.00 -3.660
-152.00 -4.264
-151.00 -4.706
-150.00 -5.229
-149.00 -5.860
-148.00 -6.341
-147.00 -6.895
-146.00 -7.450
-145.00 -7.986
-144.00 -8.365
-143.00 -8.761
-142.00 -9.134
-141.00 -9.515
-140.00 -9.440
-139.00 -9.550
-138.00 -9.567
-137.00 -9.606
-136.00 -9.409
-135.00 -9.530
-134.00 -9.319
-133.00 -9.154
-132.00 -9.266
-131.00 -9.054
-130.00 -8.976
-129.00 -9.017
-128.00 -9.146
-127.00 -9.019
-126.00 -9.244
-125.00 -9.401
-124.00 -9.461
-123.00 -9.634
-122.00 -10.018
-121.00 -10.021
-120.00 -10.417
-119.00 -10.493
-118.00 -10.910
-117.00 -10.769
-116.00 -11.172
-115.00 -11.221
-114.00 -11.550
-113.00 -11.277
-112.00 -11.522
-111.00 -11.621
-110.00 -11.577
-109.00 -11.237
-108.00 -11.382
-107.00 -11.166
-106.00 -10.666
-105.00 -10.533
-104.00 -10.474
-103.00 -10.497
-102.00 -10.320
-101.00 -9.960
-100.00 -9.896
-99.00 -10.006
-98.00 -9.796
-97.00 -9.677
-96.00 -9.734
-95.00 -9.751
-94.00 -9.997
-93.00 -10.320
-92.00 -10.356
-91.00 -10.285
-90.00 -10.948
-89.00 -10.841
-88.00 -11.250
-87.00 -11.492
-86.00 -11.846
-85.00 -12.173
-84.00 -12.782
-83.00 -12.863
-82.00 -13.300
-81.00 -13.385
-80.00 -13.567
-79.00 -13.481
-78.00 -13.485
-77.00 -13.251
-76.00 -12.807
-75.00 -12.329
-74.00 -11.908
-73.00 -11.677
-72.00 -11.426
-71.00 -11.117
-70.00 -10.601
-69.00 -9.957
-68.00 -9.951
-67.00 -9.761
-66.00 -9.197
-65.00 -8.885
-64.00 -8.922
-63.00 -8.734
-62.00 -8.447
-61.00 -8.270
-60.00 -8.228
-59.00 -8.237
-58.00 -8.179
-57.00 -8.163
-56.00 -8.353
-55.00 -8.551
-54.00 -8.436
-53.00 -8.334
-52.00 -8.655
-51.00 -8.860
-50.00 -8.840
-49.00 -9.199
-48.00 -9.262
-47.00 -9.386
-46.00 -9.710
-45.00 -9.907
-44.00 -10.241
-43.00 -10.323
-42.00 -10.758
-41.00 -10.873
-40.00 -10.944
-39.00 -11.582
-38.00 -11.572
-37.00 -11.717
-36.00 -11.728
-35.00 -11.841
-34.00 -11.928
-33.00 -11.846
-32.00 -12.052
-31.00 -11.906
-30.00 -12.075
-29.00 -11.960
-28.00 -11.800
-27.00 -11.821
-26.00 -11.783
-25.00 -11.370
-24.00 -11.082
-23.00 -11.335
-22.00 -11.224
-21.00 -11.205
-20.00 -10.698
-19.00 -11.027
-18.00 -10.488
-17.00 -10.452
-16.00 -10.505
-15.00 -10.664
-14.00 -10.303
-13.00 -10.351
-12.00 -9.981
-11.00 -10.208
-10.00 -10.284
-9.00 -9.908
-8.00 -10.041
-7.00 -9.917
-6.00 -9.875
-5.00 -9.938
-4.00 -10.074
-3.00 -10.107
-2.00 -10.095
-1.00 -9.880
0.00 -10.089
1.00 -10.109
2.00 -9.926
3.00 -10.209
4.00 -10.433
5.00 -10.266
6.00 -10.461
7.00 -10.429
8.00 -10.569
9.00 -10.506
10.00 -10.521
11.00 -11.031
12.00 -10.771
13.00 -10.738
14.00 -10.898
15.00 -10.837
16.00 -11.094
17.00 -11.207
18.00 -11.400
19.00 -11.286
20.00 -11.364
21.00 -11.729
22.00 -11.645
23.00 -11.548
24.00 -11.751
25.00 -11.722
26.00 -11.887
27.00 -12.036
28.00 -12.193
29.00 -11.804
30.00 -12.439
31.00 -12.207
32.00 -12.660
33.00 -12.336
34.00 -12.214
35.00 -12.102
36.00 -12.225
37.00 -12.205
38.00 -12.480
39.00 -12.424
40.00 -12.520
41.00 -12.628
42.00 -12.873
43.00 -12.494
44.00 -12.383
45.00 -12.666
46.00 -12.582
47.00 -13.103
48.00 -12.967
49.00 -13.030
50.00 -13.222
51.00 -13.431
52.00 -13.605
53.00 -13.994
54.00 -14.233
55.00 -14.313
56.00 -14.168
57.00 -15.057
58.00 -15.122
59.00 -15.189
60.00 -15.648
61.00 -15.409
62.00 -15.809
63.00 -15.105
64.00 -15.317
65.00 -15.078
66.00 -14.966
67.00 -14.571
68.00 -13.911
69.00 -13.226
70.00 -12.769
71.00 -12.370
72.00 -11.965
73.00 -11.339
74.00 -10.659
75.00 -10.102
76.00 -9.854
77.00 -9.586
78.00 -9.065
79.00 -9.017
80.00 -8.609
81.00 -8.397
82.00 -8.185
83.00 -8.061
84.00 -8.010
85.00 -7.810
86.00 -7.859
87.00 -7.859
88.00 -7.587
89.00 -7.713
90.00 -7.699
91.00 -7.399
92.00 -7.335
93.00 -7.206
94.00 -7.303
95.00 -7.102
96.00 -7.002
97.00 -6.596
98.00 -6.524
99.00 -6.337
100.00 -6.062
101.00 -5.812
102.00 -5.558
103.00 -5.385
104.00 -4.975
105.00 -4.626
106.00 -4.269
107.00 -4.152
108.00 -3.781
109.00 -3.621
110.00 -3.197
111.00 -3.008
112.00 -2.794
113.00 -2.789
114.00 -2.571
115.00 -2.412
116.00 -2.356
117.00 -2.333
118.00 -2.259
119.00 -2.351
120.00 -2.346
121.00 -2.450
122.00 -2.549
123.00 -2.650
124.00 -2.883
125.00 -2.989
126.00 -3.230
127.00 -3.438
128.00 -3.813
129.00 -4.185
130.00 -4.611
131.00 -4.951
132.00 -5.614
133.00 -5.929
134.00 -6.558
135.00 -7.145
136.00 -7.501
137.00 -7.960
138.00 -8.362
139.00 -8.499
140.00 -8.716
141.00 -8.390
142.00 -8.018
143.00 -7.631
144.00 -7.078
145.00 -6.388
146.00 -5.848
147.00 -4.996
148.00 -4.351
149.00 -3.780
150.00 -3.189
151.00 -2.655
152.00 -2.198
153.00 -1.661
154.00 -1.145
155.00 -0.773
156.00 -0.423
157.00 -0.040
158.00 0.344
159.00 0.626
160.00 0.999
161.00 1.221
162.00 1.438
163.00 1.713
164.00 1.885
165.00 2.033
166.00 2.238
167.00 2.409
168.00 2.490
169.00 2.612
170.00 2.799
171.00 2.824
172.00 2.868
173.00 2.982
174.00 3.008
175.00 3.038
176.00 3.060
177.00 3.040
178.00 3.032
179.00 3.020
180.00 3.032
