Ant32 Data File V1.0
Date=21/03/2022
Time=09:49:05
Operator=Cyril
Title=irid
Remarks=Freq. = 1,62 GHz
ScanAxis=Theta
StepAxis=Phi : 90 deg
StepPosition=90
StepUnit=deg
FreqValue=1.620000
RecordIncrement=1
XyzImgAxis=0
XyzImgLabel=0
Abscissa=deg
Ordinate=dBi
Data#1
-180.00 3.464
-179.00 3.422
-178.00 3.392
-177.00 3.340
-176.00 3.266
-175.00 3.208
-174.00 3.078
-173.00 2.936
-172.00 2.781
-171.00 2.671
-170.00 2.480
-169.00 2.299
-168.00 2.156
-167.00 1.863
-166.00 1.657
-165.00 1.382
-164.00 1.103
-163.00 0.849
-162.00 0.488
-161.00 0.175
-160.00 -0.159
-159.00 -0.516
-158.00 -1.026
-157.00 -1.402
-156.00 -2.072
-155.00 -2.527
-154.00 -2.969
-153.00 -3.630
-152.00 -4.196
-151.00 -4.963
-150.00 -5.597
-149.00 -6.638
-148.00 -7.282
-147.00 -8.130
-146.00 -9.131
-145.00 -9.958
-144.00 -11.143
-143.00 -12.160
-142.00 -13.182
-141.00 -13.458
-140.00 -14.002
-139.00 -14.237
-138.00 -13.720
-137.00 -13.618
-136.00 -13.039
-135.00 -12.001
-134.00 -11.611
-133.00 -11.187
-132.00 -10.517
-131.00 -10.248
-130.00 -9.910
-129.00 -9.530
-128.00 -9.493
-127.00 -9.111
-126.00 -9.070
-125.00 -9.145
-124.00 -8.852
-123.00 -8.911
-122.00 -8.875
-121.00 -8.957
-120.00 -8.979
-119.00 -9.297
-118.00 -9.345
-117.00 -9.440
-116.00 -9.695
-115.00 -9.916
-114.00 -10.058
-113.00 -10.007
-112.00 -10.275
-111.00 -10.420
-110.00 -10.545
-109.00 -10.540
-108.00 -10.945
-107.00 -10.584
-106.00 -10.570
-105.00 -10.609
-104.00 -10.672
-103.00 -10.242
-102.00 -10.254
-101.00 -10.118
-100.00 -10.048
-99.00 -9.680
-98.00 -9.522
-97.00 -9.597
-96.00 -9.256
-95.00 -9.259
-94.00 -9.489
-93.00 -9.432
-92.00 -9.495
-91.00 -9.232
-90.00 -9.259
-89.00 -9.244
-88.00 -9.446
-87.00 -9.364
-86.00 -9.714
-85.00 -9.817
-84.00 -9.820
-83.00 -10.319
-82.00 -10.641
-81.00 -10.779
-80.00 -11.258
-79.00 -11.415
-78.00 -11.827
-77.00 -12.239
-76.00 -12.450
-75.00 -12.878
-74.00 -13.631
-73.00 -14.196
-72.00 -14.320
-71.00 -14.948
-70.00 -15.170
-69.00 -15.746
-68.00 -16.806
-67.00 -16.826
-66.00 -17.002
-65.00 -17.477
-64.00 -16.651
-63.00 -17.044
-62.00 -17.396
-61.00 -16.546
-60.00 -16.146
-59.00 -15.872
-58.00 -15.366
-57.00 -15.664
-56.00 -15.055
-55.00 -14.630
-54.00 -14.413
-53.00 -13.894
-52.00 -13.611
-51.00 -13.553
-50.00 -13.168
-49.00 -13.056
-48.00 -12.677
-47.00 -12.359
-46.00 -12.247
-45.00 -11.877
-44.00 -12.022
-43.00 -12.044
-42.00 -11.510
-41.00 -11.905
-40.00 -11.412
-39.00 -11.419
-38.00 -11.455
-37.00 -11.519
-36.00 -11.438
-35.00 -11.597
-34.00 -11.439
-33.00 -11.981
-32.00 -11.491
-31.00 -11.582
-30.00 -11.654
-29.00 -11.752
-28.00 -12.157
-27.00 -11.930
-26.00 -12.299
-25.00 -12.086
-24.00 -12.272
-23.00 -12.347
-22.00 -12.119
-21.00 -12.478
-20.00 -12.365
-19.00 -12.268
-18.00 -12.647
-17.00 -12.376
-16.00 -12.866
-15.00 -12.936
-14.00 -12.677
-13.00 -12.816
-12.00 -13.068
-11.00 -12.906
-10.00 -13.211
-9.00 -12.754
-8.00 -13.141
-7.00 -13.049
-6.00 -13.249
-5.00 -13.073
-4.00 -13.130
-3.00 -13.184
-2.00 -13.114
-1.00 -12.899
0.00 -13.419
1.00 -13.496
2.00 -13.453
3.00 -13.357
4.00 -13.640
5.00 -13.786
6.00 -13.582
7.00 -14.024
8.00 -13.972
9.00 -13.898
10.00 -14.181
11.00 -13.978
12.00 -14.107
13.00 -14.166
14.00 -14.590
15.00 -14.688
16.00 -14.666
17.00 -15.064
18.00 -15.018
19.00 -14.874
20.00 -15.331
21.00 -15.402
22.00 -15.617
23.00 -15.939
24.00 -15.201
25.00 -15.411
26.00 -15.696
27.00 -15.580
28.00 -16.064
29.00 -16.138
30.00 -15.678
31.00 -15.756
32.00 -15.928
33.00 -15.594
34.00 -15.549
35.00 -15.717
36.00 -15.368
37.00 -15.442
38.00 -15.569
39.00 -15.242
40.00 -15.358
41.00 -14.917
42.00 -14.980
43.00 -14.387
44.00 -13.738
45.00 -14.249
46.00 -13.933
47.00 -13.595
48.00 -13.262
49.00 -12.837
50.00 -12.488
51.00 -12.309
52.00 -11.672
53.00 -11.236
54.00 -11.202
55.00 -10.842
56.00 -10.451
57.00 -10.278
58.00 -9.638
59.00 -9.364
60.00 -9.207
61.00 -8.850
62.00 -8.540
63.00 -8.189
64.00 -8.107
65.00 -7.795
66.00 -7.435
67.00 -7.415
68.00 -7.223
69.00 -7.108
70.00 -7.033
71.00 -6.842
72.00 -6.916
73.00 -6.791
74.00 -6.903
75.00 -6.849
76.00 -6.988
77.00 -7.006
78.00 -7.205
79.00 -7.377
80.00 -7.494
81.00 -7.736
82.00 -8.069
83.00 -8.283
84.00 -8.813
85.00 -9.072
86.00 -9.330
87.00 -9.458
88.00 -9.848
89.00 -9.882
90.00 -9.680
91.00 -9.446
92.00 -9.236
93.00 -8.880
94.00 -8.273
95.00 -7.943
96.00 -7.457
97.00 -6.768
98.00 -6.210
99.00 -5.606
100.00 -5.297
101.00 -4.768
102.00 -4.443
103.00 -4.143
104.00 -3.569
105.00 -3.380
106.00 -2.969
107.00 -2.873
108.00 -2.609
109.00 -2.597
110.00 -2.474
111.00 -2.341
112.00 -2.325
113.00 -2.351
114.00 -2.358
115.00 -2.539
116.00 -2.755
117.00 -2.751
118.00 -3.093
119.00 -3.257
120.00 -3.592
121.00 -3.895
122.00 -4.154
123.00 -4.670
124.00 -5.083
125.00 -5.441
126.00 -6.264
127.00 -6.806
128.00 -7.582
129.00 -8.097
130.00 -9.206
131.00 -9.766
132.00 -10.793
133.00 -11.481
134.00 -12.387
135.00 -12.324
136.00 -12.800
137.00 -12.210
138.00 -11.853
139.00 -10.880
140.00 -9.878
141.00 -8.727
142.00 -7.822
143.00 -7.033
144.00 -6.268
145.00 -5.491
146.00 -4.585
147.00 -4.075
148.00 -3.433
149.00 -2.782
150.00 -2.284
151.00 -1.756
152.00 -1.254
153.00 -0.866
154.00 -0.479
155.00 -0.017
156.00 0.256
157.00 0.613
158.00 0.896
159.00 1.220
160.00 1.516
161.00 1.722
162.00 1.960
163.00 2.173
164.00 2.336
165.00 2.576
166.00 2.729
167.00 2.816
168.00 2.963
169.00 3.104
170.00 3.162
171.00 3.321
172.00 3.329
173.00 3.463
174.00 3.478
175.00 3.476
176.00 3.545
177.00 3.493
178.00 3.562
179.00 3.498
180.00 3.504
