Ant32 Data File V1.0
Date=21/03/2022
Time=09:45:38
Operator=Cyril
Title=irid
Remarks=Freq. = 1,612 GHz
ScanAxis=Theta
StepAxis=Phi : 0 deg
StepPosition=0
StepUnit=deg
FreqValue=1.612000
RecordIncrement=1
XyzImgAxis=0
XyzImgLabel=0
Abscissa=deg
Ordinate=dBi
Data#1
-180.00 2.211
-179.00 2.190
-178.00 2.213
-177.00 2.172
-176.00 2.067
-175.00 1.963
-174.00 1.885
-173.00 1.729
-172.00 1.599
-171.00 1.468
-170.00 1.302
-169.00 1.160
-168.00 0.927
-167.00 0.784
-166.00 0.542
-165.00 0.356
-164.00 0.134
-163.00 -0.169
-162.00 -0.387
-161.00 -0.537
-160.00 -0.931
-159.00 -1.259
-158.00 -1.560
-157.00 -1.841
-156.00 -2.149
-155.00 -2.512
-154.00 -2.890
-153.00 -3.245
-152.00 -3.729
-151.00 -3.997
-150.00 -4.520
-149.00 -4.809
-148.00 -5.054
-147.00 -5.638
-146.00 -5.818
-145.00 -6.183
-144.00 -6.478
-143.00 -6.576
-142.00 -6.857
-141.00 -7.085
-140.00 -7.300
-139.00 -7.260
-138.00 -7.556
-137.00 -7.490
-136.00 -7.686
-135.00 -7.747
-134.00 -8.037
-133.00 -8.044
-132.00 -8.231
-131.00 -8.117
-130.00 -8.482
-129.00 -8.577
-128.00 -8.643
-127.00 -9.097
-126.00 -9.213
-125.00 -9.679
-124.00 -9.838
-123.00 -10.411
-122.00 -10.756
-121.00 -11.488
-120.00 -12.007
-119.00 -12.433
-118.00 -12.847
-117.00 -13.780
-116.00 -14.312
-115.00 -14.962
-114.00 -15.740
-113.00 -16.618
-112.00 -17.280
-111.00 -18.063
-110.00 -18.548
-109.00 -18.375
-108.00 -19.055
-107.00 -18.916
-106.00 -18.049
-105.00 -17.571
-104.00 -16.930
-103.00 -16.477
-102.00 -15.346
-101.00 -14.934
-100.00 -14.958
-99.00 -14.281
-98.00 -13.784
-97.00 -13.507
-96.00 -13.010
-95.00 -13.174
-94.00 -12.671
-93.00 -12.307
-92.00 -12.000
-91.00 -11.921
-90.00 -11.600
-89.00 -11.662
-88.00 -11.291
-87.00 -11.320
-86.00 -11.269
-85.00 -11.089
-84.00 -10.996
-83.00 -10.924
-82.00 -11.167
-81.00 -11.104
-80.00 -11.047
-79.00 -11.238
-78.00 -11.370
-77.00 -11.452
-76.00 -11.506
-75.00 -11.592
-74.00 -11.924
-73.00 -12.504
-72.00 -12.897
-71.00 -12.688
-70.00 -13.393
-69.00 -13.960
-68.00 -14.759
-67.00 -15.032
-66.00 -15.804
-65.00 -16.276
-64.00 -17.223
-63.00 -17.220
-62.00 -18.309
-61.00 -17.872
-60.00 -18.270
-59.00 -17.660
-58.00 -16.870
-57.00 -16.172
-56.00 -15.574
-55.00 -14.776
-54.00 -13.905
-53.00 -13.270
-52.00 -12.290
-51.00 -11.662
-50.00 -11.076
-49.00 -10.234
-48.00 -9.867
-47.00 -9.540
-46.00 -9.144
-45.00 -8.996
-44.00 -8.157
-43.00 -7.837
-42.00 -7.512
-41.00 -7.314
-40.00 -7.285
-39.00 -6.803
-38.00 -6.695
-37.00 -6.583
-36.00 -6.207
-35.00 -6.113
-34.00 -6.040
-33.00 -5.893
-32.00 -5.857
-31.00 -5.766
-30.00 -5.814
-29.00 -5.631
-28.00 -5.648
-27.00 -5.630
-26.00 -5.631
-25.00 -5.607
-24.00 -5.542
-23.00 -5.614
-22.00 -5.619
-21.00 -5.661
-20.00 -5.705
-19.00 -5.697
-18.00 -5.788
-17.00 -6.000
-16.00 -5.949
-15.00 -6.047
-14.00 -6.089
-13.00 -6.107
-12.00 -6.271
-11.00 -6.342
-10.00 -6.426
-9.00 -6.682
-8.00 -6.567
-7.00 -6.627
-6.00 -6.474
-5.00 -6.721
-4.00 -6.702
-3.00 -6.942
-2.00 -6.903
-1.00 -6.852
0.00 -6.800
1.00 -6.953
2.00 -6.933
3.00 -7.059
4.00 -7.055
5.00 -7.082
6.00 -6.986
7.00 -7.023
8.00 -7.100
9.00 -7.079
10.00 -7.121
11.00 -6.997
12.00 -7.164
13.00 -7.097
14.00 -7.159
15.00 -7.100
16.00 -7.143
17.00 -7.087
18.00 -6.985
19.00 -6.883
20.00 -6.971
21.00 -6.854
22.00 -6.934
23.00 -6.770
24.00 -6.871
25.00 -6.811
26.00 -6.768
27.00 -6.690
28.00 -6.783
29.00 -6.622
30.00 -6.693
31.00 -6.726
32.00 -6.708
33.00 -6.637
34.00 -6.772
35.00 -6.766
36.00 -6.688
37.00 -6.756
38.00 -6.661
39.00 -6.624
40.00 -6.752
41.00 -6.715
42.00 -6.787
43.00 -6.603
44.00 -6.710
45.00 -6.761
46.00 -6.653
47.00 -6.501
48.00 -6.734
49.00 -6.538
50.00 -6.648
51.00 -6.502
52.00 -6.495
53.00 -6.458
54.00 -6.301
55.00 -6.263
56.00 -6.094
57.00 -6.139
58.00 -5.935
59.00 -6.033
60.00 -5.855
61.00 -5.906
62.00 -5.815
63.00 -5.751
64.00 -5.589
65.00 -5.598
66.00 -5.624
67.00 -5.731
68.00 -5.450
69.00 -5.586
70.00 -5.589
71.00 -5.511
72.00 -5.592
73.00 -5.564
74.00 -5.639
75.00 -5.757
76.00 -5.914
77.00 -5.959
78.00 -6.001
79.00 -5.993
80.00 -6.218
81.00 -6.305
82.00 -6.272
83.00 -6.460
84.00 -6.419
85.00 -6.390
86.00 -6.257
87.00 -6.521
88.00 -6.296
89.00 -6.281
90.00 -6.341
91.00 -6.063
92.00 -6.063
93.00 -5.916
94.00 -5.763
95.00 -5.642
96.00 -5.438
97.00 -5.356
98.00 -5.100
99.00 -4.828
100.00 -4.840
101.00 -4.591
102.00 -4.412
103.00 -4.172
104.00 -3.878
105.00 -3.934
106.00 -3.686
107.00 -3.553
108.00 -3.324
109.00 -3.299
110.00 -3.197
111.00 -3.136
112.00 -2.962
113.00 -3.104
114.00 -3.021
115.00 -2.947
116.00 -2.966
117.00 -2.960
118.00 -3.061
119.00 -3.048
120.00 -3.204
121.00 -3.332
122.00 -3.494
123.00 -3.627
124.00 -3.683
125.00 -3.884
126.00 -4.071
127.00 -4.458
128.00 -4.741
129.00 -5.047
130.00 -5.512
131.00 -5.710
132.00 -6.103
133.00 -6.495
134.00 -6.709
135.00 -7.243
136.00 -7.406
137.00 -7.544
138.00 -7.690
139.00 -7.637
140.00 -7.606
141.00 -7.465
142.00 -7.124
143.00 -6.838
144.00 -6.252
145.00 -5.610
146.00 -5.311
147.00 -4.556
148.00 -4.210
149.00 -3.491
150.00 -3.114
151.00 -2.587
152.00 -2.103
153.00 -1.710
154.00 -1.265
155.00 -0.884
156.00 -0.518
157.00 -0.287
158.00 0.015
159.00 0.329
160.00 0.530
161.00 0.747
162.00 1.016
163.00 1.205
164.00 1.450
165.00 1.522
166.00 1.693
167.00 1.807
168.00 1.942
169.00 1.993
170.00 2.101
171.00 2.210
172.00 2.263
173.00 2.364
174.00 2.382
175.00 2.371
176.00 2.404
177.00 2.415
178.00 2.389
179.00 2.355
180.00 2.269
