Ant32 Data File V1.0
Date=21/03/2022
Time=09:45:38
Operator=Cyril
Title=irid
Remarks=Freq. = 1,616 GHz
ScanAxis=Theta
StepAxis=Phi : 0 deg
StepPosition=0
StepUnit=deg
FreqValue=1.616000
RecordIncrement=1
XyzImgAxis=0
XyzImgLabel=0
Abscissa=deg
Ordinate=dBi
Data#1
-180.00 3.056
-179.00 3.070
-178.00 3.026
-177.00 2.871
-176.00 2.874
-175.00 2.761
-174.00 2.662
-173.00 2.555
-172.00 2.407
-171.00 2.244
-170.00 2.080
-169.00 1.880
-168.00 1.723
-167.00 1.471
-166.00 1.323
-165.00 1.080
-164.00 0.811
-163.00 0.565
-162.00 0.271
-161.00 0.078
-160.00 -0.290
-159.00 -0.624
-158.00 -1.013
-157.00 -1.350
-156.00 -1.712
-155.00 -2.087
-154.00 -2.465
-153.00 -2.803
-152.00 -3.270
-151.00 -3.722
-150.00 -4.145
-149.00 -4.506
-148.00 -4.880
-147.00 -5.422
-146.00 -5.738
-145.00 -6.168
-144.00 -6.476
-143.00 -6.823
-142.00 -7.131
-141.00 -7.364
-140.00 -7.662
-139.00 -7.951
-138.00 -8.077
-137.00 -8.263
-136.00 -8.251
-135.00 -8.524
-134.00 -8.738
-133.00 -9.047
-132.00 -9.096
-131.00 -9.269
-130.00 -9.581
-129.00 -9.833
-128.00 -10.227
-127.00 -10.466
-126.00 -10.989
-125.00 -11.206
-124.00 -11.856
-123.00 -12.335
-122.00 -12.842
-121.00 -13.571
-120.00 -14.410
-119.00 -14.792
-118.00 -15.960
-117.00 -17.085
-116.00 -17.650
-115.00 -18.473
-114.00 -19.825
-113.00 -19.694
-112.00 -20.792
-111.00 -20.896
-110.00 -20.691
-109.00 -20.348
-108.00 -19.437
-107.00 -18.577
-106.00 -18.329
-105.00 -18.185
-104.00 -17.412
-103.00 -17.204
-102.00 -17.220
-101.00 -16.585
-100.00 -16.483
-99.00 -16.952
-98.00 -16.310
-97.00 -16.275
-96.00 -16.195
-95.00 -16.092
-94.00 -16.100
-93.00 -16.678
-92.00 -16.714
-91.00 -16.654
-90.00 -17.122
-89.00 -16.929
-88.00 -17.063
-87.00 -16.924
-86.00 -17.029
-85.00 -16.681
-84.00 -15.752
-83.00 -15.813
-82.00 -15.848
-81.00 -15.532
-80.00 -15.202
-79.00 -14.964
-78.00 -15.151
-77.00 -15.041
-76.00 -14.484
-75.00 -14.011
-74.00 -14.213
-73.00 -14.462
-72.00 -13.915
-71.00 -13.861
-70.00 -14.054
-69.00 -14.607
-68.00 -14.297
-67.00 -14.876
-66.00 -15.296
-65.00 -15.567
-64.00 -16.254
-63.00 -17.145
-62.00 -18.361
-61.00 -18.880
-60.00 -20.396
-59.00 -21.171
-58.00 -23.236
-57.00 -24.831
-56.00 -28.029
-55.00 -25.590
-54.00 -25.764
-53.00 -25.170
-52.00 -23.047
-51.00 -20.556
-50.00 -19.677
-49.00 -17.789
-48.00 -17.261
-47.00 -15.844
-46.00 -14.879
-45.00 -14.254
-44.00 -13.466
-43.00 -12.893
-42.00 -12.205
-41.00 -11.886
-40.00 -11.293
-39.00 -10.832
-38.00 -10.225
-37.00 -10.077
-36.00 -9.756
-35.00 -9.314
-34.00 -9.011
-33.00 -8.864
-32.00 -8.896
-31.00 -8.293
-30.00 -8.331
-29.00 -8.053
-28.00 -8.195
-27.00 -8.103
-26.00 -7.841
-25.00 -7.882
-24.00 -7.807
-23.00 -7.712
-22.00 -7.685
-21.00 -7.663
-20.00 -7.478
-19.00 -7.704
-18.00 -7.694
-17.00 -7.744
-16.00 -7.850
-15.00 -7.941
-14.00 -7.883
-13.00 -8.056
-12.00 -8.231
-11.00 -8.090
-10.00 -8.179
-9.00 -8.225
-8.00 -8.308
-7.00 -8.336
-6.00 -8.497
-5.00 -8.449
-4.00 -8.777
-3.00 -8.598
-2.00 -8.840
-1.00 -8.634
0.00 -8.853
1.00 -8.741
2.00 -9.105
3.00 -9.233
4.00 -9.342
5.00 -9.173
6.00 -9.207
7.00 -9.314
8.00 -9.287
9.00 -9.168
10.00 -9.336
11.00 -9.719
12.00 -9.534
13.00 -9.637
14.00 -9.683
15.00 -9.750
16.00 -9.505
17.00 -9.799
18.00 -9.842
19.00 -9.873
20.00 -9.533
21.00 -9.827
22.00 -9.837
23.00 -9.826
24.00 -9.807
25.00 -9.925
26.00 -10.143
27.00 -10.097
28.00 -9.971
29.00 -10.070
30.00 -10.204
31.00 -10.144
32.00 -10.154
33.00 -10.207
34.00 -10.173
35.00 -10.280
36.00 -10.032
37.00 -10.197
38.00 -10.221
39.00 -10.442
40.00 -10.357
41.00 -10.437
42.00 -10.310
43.00 -10.031
44.00 -10.334
45.00 -10.454
46.00 -10.399
47.00 -10.478
48.00 -10.403
49.00 -10.336
50.00 -10.199
51.00 -10.304
52.00 -9.931
53.00 -9.892
54.00 -9.728
55.00 -9.422
56.00 -9.630
57.00 -9.243
58.00 -9.301
59.00 -9.172
60.00 -8.767
61.00 -8.939
62.00 -8.989
63.00 -8.861
64.00 -8.653
65.00 -8.560
66.00 -8.405
67.00 -8.339
68.00 -8.376
69.00 -8.252
70.00 -8.197
71.00 -8.041
72.00 -8.245
73.00 -8.077
74.00 -8.179
75.00 -8.035
76.00 -8.181
77.00 -7.909
78.00 -7.898
79.00 -8.024
80.00 -8.159
81.00 -8.217
82.00 -8.168
83.00 -8.199
84.00 -8.319
85.00 -8.333
86.00 -8.341
87.00 -8.041
88.00 -8.351
89.00 -8.356
90.00 -8.078
91.00 -8.104
92.00 -7.769
93.00 -7.497
94.00 -7.328
95.00 -7.036
96.00 -6.668
97.00 -6.719
98.00 -6.265
99.00 -6.117
100.00 -5.790
101.00 -5.586
102.00 -5.193
103.00 -4.892
104.00 -4.660
105.00 -4.333
106.00 -4.047
107.00 -3.797
108.00 -3.631
109.00 -3.496
110.00 -3.346
111.00 -3.191
112.00 -3.103
113.00 -2.917
114.00 -2.899
115.00 -2.773
116.00 -2.754
117.00 -2.727
118.00 -2.696
119.00 -2.838
120.00 -2.865
121.00 -2.919
122.00 -3.076
123.00 -3.199
124.00 -3.411
125.00 -3.546
126.00 -3.843
127.00 -4.089
128.00 -4.419
129.00 -4.877
130.00 -5.095
131.00 -5.529
132.00 -5.959
133.00 -6.361
134.00 -6.785
135.00 -7.017
136.00 -7.353
137.00 -7.732
138.00 -7.716
139.00 -7.856
140.00 -7.771
141.00 -7.447
142.00 -6.985
143.00 -6.494
144.00 -5.927
145.00 -5.363
146.00 -4.731
147.00 -4.224
148.00 -3.573
149.00 -3.075
150.00 -2.523
151.00 -2.029
152.00 -1.515
153.00 -1.133
154.00 -0.739
155.00 -0.321
156.00 0.018
157.00 0.431
158.00 0.731
159.00 1.014
160.00 1.353
161.00 1.504
162.00 1.711
163.00 1.965
164.00 2.159
165.00 2.305
166.00 2.476
167.00 2.655
168.00 2.712
169.00 2.791
170.00 2.938
171.00 2.992
172.00 3.062
173.00 3.114
174.00 3.158
175.00 3.183
176.00 3.146
177.00 3.208
178.00 3.185
179.00 3.144
180.00 3.078
