Ant32 Data File V1.0
Date=21/03/2022
Time=09:49:05
Operator=Cyril
Title=irid
Remarks=Freq. = 1,614 GHz
ScanAxis=Theta
StepAxis=Phi : 90 deg
StepPosition=90
StepUnit=deg
FreqValue=1.614000
RecordIncrement=1
XyzImgAxis=0
XyzImgLabel=0
Abscissa=deg
Ordinate=dBi
Data#1
-180.00 2.830
-179.00 2.752
-178.00 2.717
-177.00 2.664
-176.00 2.514
-175.00 2.458
-174.00 2.300
-173.00 2.242
-172.00 2.065
-171.00 1.919
-170.00 1.752
-169.00 1.539
-168.00 1.388
-167.00 1.125
-166.00 0.977
-165.00 0.652
-164.00 0.462
-163.00 0.091
-162.00 -0.221
-161.00 -0.518
-160.00 -0.919
-159.00 -1.304
-158.00 -1.704
-157.00 -2.226
-156.00 -2.716
-155.00 -3.313
-154.00 -3.767
-153.00 -4.432
-152.00 -5.184
-151.00 -5.863
-150.00 -6.582
-149.00 -7.717
-148.00 -8.391
-147.00 -9.516
-146.00 -10.468
-145.00 -11.764
-144.00 -12.781
-143.00 -13.472
-142.00 -14.867
-141.00 -15.165
-140.00 -15.571
-139.00 -14.949
-138.00 -14.730
-137.00 -13.672
-136.00 -13.135
-135.00 -12.207
-134.00 -11.409
-133.00 -10.702
-132.00 -10.583
-131.00 -9.988
-130.00 -9.673
-129.00 -9.333
-128.00 -9.349
-127.00 -8.866
-126.00 -8.724
-125.00 -8.498
-124.00 -8.510
-123.00 -8.573
-122.00 -8.792
-121.00 -8.733
-120.00 -8.871
-119.00 -8.885
-118.00 -9.112
-117.00 -9.308
-116.00 -9.603
-115.00 -9.856
-114.00 -10.000
-113.00 -10.246
-112.00 -10.591
-111.00 -10.654
-110.00 -10.859
-109.00 -11.078
-108.00 -11.131
-107.00 -11.183
-106.00 -11.078
-105.00 -11.144
-104.00 -11.124
-103.00 -10.647
-102.00 -10.610
-101.00 -10.196
-100.00 -10.353
-99.00 -9.935
-98.00 -9.515
-97.00 -9.287
-96.00 -9.195
-95.00 -8.932
-94.00 -8.940
-93.00 -8.773
-92.00 -8.610
-91.00 -8.551
-90.00 -8.554
-89.00 -8.582
-88.00 -8.602
-87.00 -8.510
-86.00 -8.866
-85.00 -8.978
-84.00 -9.176
-83.00 -9.470
-82.00 -9.958
-81.00 -10.159
-80.00 -10.173
-79.00 -10.337
-78.00 -11.006
-77.00 -11.376
-76.00 -11.738
-75.00 -11.876
-74.00 -11.981
-73.00 -12.322
-72.00 -12.531
-71.00 -12.509
-70.00 -12.645
-69.00 -12.358
-68.00 -12.210
-67.00 -12.316
-66.00 -12.038
-65.00 -11.612
-64.00 -11.258
-63.00 -10.797
-62.00 -10.516
-61.00 -10.198
-60.00 -9.834
-59.00 -9.848
-58.00 -9.494
-57.00 -9.314
-56.00 -8.964
-55.00 -8.978
-54.00 -8.965
-53.00 -8.727
-52.00 -8.512
-51.00 -8.549
-50.00 -8.619
-49.00 -8.558
-48.00 -8.342
-47.00 -8.416
-46.00 -8.611
-45.00 -8.371
-44.00 -8.584
-43.00 -8.628
-42.00 -8.728
-41.00 -8.756
-40.00 -8.791
-39.00 -8.725
-38.00 -9.306
-37.00 -9.184
-36.00 -9.446
-35.00 -9.399
-34.00 -9.562
-33.00 -9.745
-32.00 -9.839
-31.00 -9.968
-30.00 -9.938
-29.00 -9.943
-28.00 -10.452
-27.00 -10.284
-26.00 -10.350
-25.00 -10.737
-24.00 -10.604
-23.00 -10.704
-22.00 -10.720
-21.00 -10.703
-20.00 -10.792
-19.00 -11.047
-18.00 -11.044
-17.00 -10.855
-16.00 -10.847
-15.00 -10.994
-14.00 -11.017
-13.00 -10.977
-12.00 -10.892
-11.00 -10.854
-10.00 -10.726
-9.00 -10.698
-8.00 -10.494
-7.00 -10.363
-6.00 -10.390
-5.00 -9.988
-4.00 -10.037
-3.00 -9.901
-2.00 -9.869
-1.00 -9.750
0.00 -9.772
1.00 -9.833
2.00 -9.927
3.00 -9.457
4.00 -9.329
5.00 -9.465
6.00 -9.091
7.00 -9.161
8.00 -9.073
9.00 -8.975
10.00 -9.041
11.00 -8.835
12.00 -8.450
13.00 -8.596
14.00 -8.575
15.00 -8.451
16.00 -8.084
17.00 -8.168
18.00 -8.083
19.00 -8.028
20.00 -8.068
21.00 -7.814
22.00 -7.788
23.00 -7.565
24.00 -7.476
25.00 -7.486
26.00 -7.526
27.00 -7.438
28.00 -7.284
29.00 -7.235
30.00 -6.948
31.00 -7.264
32.00 -7.040
33.00 -7.383
34.00 -7.212
35.00 -7.260
36.00 -7.056
37.00 -7.084
38.00 -7.138
39.00 -7.108
40.00 -7.199
41.00 -7.247
42.00 -7.116
43.00 -7.261
44.00 -7.381
45.00 -7.491
46.00 -7.406
47.00 -7.528
48.00 -7.529
49.00 -7.612
50.00 -7.651
51.00 -7.580
52.00 -7.799
53.00 -7.487
54.00 -7.741
55.00 -7.618
56.00 -7.436
57.00 -7.492
58.00 -7.340
59.00 -7.019
60.00 -7.056
61.00 -6.800
62.00 -6.649
63.00 -6.337
64.00 -6.122
65.00 -5.810
66.00 -5.536
67.00 -5.340
68.00 -5.416
69.00 -5.053
70.00 -4.915
71.00 -4.715
72.00 -4.659
73.00 -4.487
74.00 -4.377
75.00 -4.306
76.00 -4.251
77.00 -4.168
78.00 -4.326
79.00 -4.319
80.00 -4.308
81.00 -4.534
82.00 -4.750
83.00 -4.791
84.00 -5.153
85.00 -5.344
86.00 -5.322
87.00 -5.548
88.00 -5.966
89.00 -6.129
90.00 -6.316
91.00 -6.368
92.00 -6.566
93.00 -6.618
94.00 -6.693
95.00 -6.627
96.00 -6.396
97.00 -6.147
98.00 -5.936
99.00 -5.503
100.00 -5.179
101.00 -4.754
102.00 -4.298
103.00 -3.997
104.00 -3.706
105.00 -3.289
106.00 -3.019
107.00 -2.601
108.00 -2.457
109.00 -2.282
110.00 -1.983
111.00 -1.830
112.00 -1.796
113.00 -1.701
114.00 -1.737
115.00 -1.765
116.00 -1.772
117.00 -1.996
118.00 -2.178
119.00 -2.228
120.00 -2.521
121.00 -2.741
122.00 -3.035
123.00 -3.364
124.00 -3.802
125.00 -4.180
126.00 -4.794
127.00 -5.466
128.00 -5.950
129.00 -6.505
130.00 -7.436
131.00 -8.497
132.00 -9.405
133.00 -10.699
134.00 -12.000
135.00 -13.026
136.00 -13.890
137.00 -15.076
138.00 -15.061
139.00 -14.710
140.00 -13.762
141.00 -12.144
142.00 -10.762
143.00 -9.563
144.00 -8.255
145.00 -7.460
146.00 -6.521
147.00 -5.501
148.00 -4.925
149.00 -4.126
150.00 -3.429
151.00 -2.939
152.00 -2.319
153.00 -1.885
154.00 -1.338
155.00 -0.943
156.00 -0.577
157.00 -0.216
158.00 0.090
159.00 0.414
160.00 0.701
161.00 1.024
162.00 1.170
163.00 1.410
164.00 1.632
165.00 1.848
166.00 2.053
167.00 2.101
168.00 2.291
169.00 2.360
170.00 2.493
171.00 2.635
172.00 2.646
173.00 2.716
174.00 2.753
175.00 2.795
176.00 2.800
177.00 2.813
178.00 2.789
179.00 2.810
180.00 2.790
