Ant32 Data File V1.0
Date=21/03/2022
Time=09:49:05
Operator=Cyril
Title=irid
Remarks=Freq. = 1,622 GHz
ScanAxis=Theta
StepAxis=Phi : 90 deg
StepPosition=90
StepUnit=deg
FreqValue=1.622000
RecordIncrement=1
XyzImgAxis=0
XyzImgLabel=0
Abscissa=deg
Ordinate=dBi
Data#1
-180.00 3.313
-179.00 3.373
-178.00 3.267
-177.00 3.234
-176.00 3.119
-175.00 3.066
-174.00 2.892
-173.00 2.750
-172.00 2.671
-171.00 2.525
-170.00 2.326
-169.00 2.154
-168.00 1.953
-167.00 1.803
-166.00 1.533
-165.00 1.254
-164.00 1.023
-163.00 0.681
-162.00 0.462
-161.00 0.073
-160.00 -0.257
-159.00 -0.643
-158.00 -1.037
-157.00 -1.483
-156.00 -1.984
-155.00 -2.522
-154.00 -3.201
-153.00 -3.721
-152.00 -4.216
-151.00 -4.843
-150.00 -5.398
-149.00 -6.461
-148.00 -7.275
-147.00 -8.242
-146.00 -9.118
-145.00 -10.064
-144.00 -10.898
-143.00 -12.048
-142.00 -12.647
-141.00 -13.618
-140.00 -14.050
-139.00 -14.258
-138.00 -14.259
-137.00 -14.139
-136.00 -13.801
-135.00 -13.055
-134.00 -12.536
-133.00 -12.186
-132.00 -11.481
-131.00 -11.221
-130.00 -10.775
-129.00 -10.374
-128.00 -10.337
-127.00 -9.848
-126.00 -9.791
-125.00 -9.797
-124.00 -9.781
-123.00 -9.712
-122.00 -9.672
-121.00 -9.794
-120.00 -10.038
-119.00 -10.137
-118.00 -10.165
-117.00 -10.273
-116.00 -10.235
-115.00 -10.596
-114.00 -10.432
-113.00 -11.141
-112.00 -10.839
-111.00 -11.123
-110.00 -10.778
-109.00 -11.114
-108.00 -11.483
-107.00 -10.987
-106.00 -11.262
-105.00 -11.238
-104.00 -11.295
-103.00 -10.977
-102.00 -11.067
-101.00 -10.856
-100.00 -10.802
-99.00 -10.822
-98.00 -10.539
-97.00 -10.572
-96.00 -10.354
-95.00 -10.398
-94.00 -10.306
-93.00 -10.426
-92.00 -10.340
-91.00 -10.419
-90.00 -10.226
-89.00 -10.477
-88.00 -10.562
-87.00 -10.444
-86.00 -10.940
-85.00 -10.884
-84.00 -11.042
-83.00 -10.929
-82.00 -11.420
-81.00 -11.623
-80.00 -12.059
-79.00 -12.268
-78.00 -12.373
-77.00 -12.661
-76.00 -12.702
-75.00 -13.407
-74.00 -13.803
-73.00 -14.407
-72.00 -14.766
-71.00 -15.159
-70.00 -15.271
-69.00 -16.040
-68.00 -15.890
-67.00 -16.415
-66.00 -16.876
-65.00 -17.171
-64.00 -17.278
-63.00 -17.095
-62.00 -16.614
-61.00 -16.766
-60.00 -16.638
-59.00 -16.162
-58.00 -16.074
-57.00 -15.664
-56.00 -15.703
-55.00 -14.685
-54.00 -14.241
-53.00 -14.449
-52.00 -14.077
-51.00 -13.854
-50.00 -13.210
-49.00 -13.128
-48.00 -12.935
-47.00 -12.330
-46.00 -11.742
-45.00 -11.785
-44.00 -11.376
-43.00 -11.214
-42.00 -11.137
-41.00 -10.890
-40.00 -10.777
-39.00 -10.502
-38.00 -10.285
-37.00 -10.205
-36.00 -10.035
-35.00 -9.893
-34.00 -10.163
-33.00 -10.146
-32.00 -9.938
-31.00 -10.090
-30.00 -9.907
-29.00 -9.934
-28.00 -9.959
-27.00 -9.906
-26.00 -10.082
-25.00 -9.898
-24.00 -10.114
-23.00 -9.987
-22.00 -10.205
-21.00 -10.331
-20.00 -10.273
-19.00 -10.457
-18.00 -10.665
-17.00 -10.613
-16.00 -10.492
-15.00 -10.486
-14.00 -10.564
-13.00 -10.761
-12.00 -10.623
-11.00 -10.926
-10.00 -11.120
-9.00 -11.074
-8.00 -11.090
-7.00 -11.203
-6.00 -11.202
-5.00 -11.202
-4.00 -11.415
-3.00 -11.514
-2.00 -11.664
-1.00 -11.725
0.00 -11.878
1.00 -11.933
2.00 -12.038
3.00 -12.215
4.00 -12.639
5.00 -12.818
6.00 -13.014
7.00 -12.777
8.00 -13.013
9.00 -13.310
10.00 -13.123
11.00 -13.510
12.00 -14.030
13.00 -14.013
14.00 -14.425
15.00 -14.241
16.00 -14.625
17.00 -15.125
18.00 -15.805
19.00 -15.426
20.00 -15.634
21.00 -16.023
22.00 -15.532
23.00 -15.832
24.00 -16.360
25.00 -16.638
26.00 -16.326
27.00 -16.972
28.00 -16.801
29.00 -16.977
30.00 -16.519
31.00 -16.724
32.00 -16.624
33.00 -17.093
34.00 -16.857
35.00 -16.734
36.00 -15.948
37.00 -16.972
38.00 -16.189
39.00 -16.319
40.00 -16.112
41.00 -15.196
42.00 -15.353
43.00 -15.064
44.00 -14.998
45.00 -14.843
46.00 -14.293
47.00 -13.793
48.00 -13.686
49.00 -13.291
50.00 -12.796
51.00 -12.541
52.00 -12.321
53.00 -11.940
54.00 -11.494
55.00 -11.456
56.00 -11.051
57.00 -10.748
58.00 -10.523
59.00 -10.174
60.00 -9.969
61.00 -9.684
62.00 -9.834
63.00 -9.360
64.00 -9.346
65.00 -8.996
66.00 -9.060
67.00 -8.599
68.00 -8.574
69.00 -8.730
70.00 -8.731
71.00 -8.806
72.00 -8.727
73.00 -8.783
74.00 -8.613
75.00 -8.910
76.00 -9.186
77.00 -9.033
78.00 -9.502
79.00 -9.533
80.00 -10.164
81.00 -10.533
82.00 -10.500
83.00 -11.165
84.00 -11.716
85.00 -12.166
86.00 -12.397
87.00 -12.617
88.00 -12.449
89.00 -12.786
90.00 -12.402
91.00 -11.888
92.00 -11.390
93.00 -10.640
94.00 -10.033
95.00 -9.342
96.00 -8.530
97.00 -7.860
98.00 -7.249
99.00 -6.690
100.00 -6.064
101.00 -5.496
102.00 -5.086
103.00 -4.631
104.00 -4.412
105.00 -3.996
106.00 -3.703
107.00 -3.533
108.00 -3.322
109.00 -3.240
110.00 -3.212
111.00 -2.983
112.00 -3.052
113.00 -3.150
114.00 -3.251
115.00 -3.337
116.00 -3.630
117.00 -3.695
118.00 -4.131
119.00 -4.377
120.00 -4.676
121.00 -4.980
122.00 -5.415
123.00 -5.950
124.00 -6.387
125.00 -6.836
126.00 -7.468
127.00 -8.322
128.00 -9.024
129.00 -9.655
130.00 -10.385
131.00 -11.608
132.00 -12.272
133.00 -12.604
134.00 -13.361
135.00 -13.509
136.00 -12.972
137.00 -12.230
138.00 -11.484
139.00 -10.510
140.00 -9.520
141.00 -8.581
142.00 -7.519
143.00 -6.808
144.00 -6.098
145.00 -5.380
146.00 -4.653
147.00 -3.882
148.00 -3.383
149.00 -2.772
150.00 -2.300
151.00 -1.764
152.00 -1.308
153.00 -0.996
154.00 -0.558
155.00 -0.240
156.00 0.097
157.00 0.528
158.00 0.816
159.00 1.060
160.00 1.278
161.00 1.582
162.00 1.827
163.00 2.059
164.00 2.192
165.00 2.404
166.00 2.560
167.00 2.702
168.00 2.777
169.00 2.940
170.00 3.061
171.00 3.141
172.00 3.243
173.00 3.326
174.00 3.273
175.00 3.355
176.00 3.349
177.00 3.394
178.00 3.437
179.00 3.373
180.00 3.357
