Ant32 Data File V1.0
Date=21/03/2022
Time=09:45:38
Operator=Cyril
Title=irid
Remarks=Freq. = 1,626 GHz
ScanAxis=Theta
StepAxis=Phi : 0 deg
StepPosition=0
StepUnit=deg
FreqValue=1.626000
RecordIncrement=1
XyzImgAxis=0
XyzImgLabel=0
Abscissa=deg
Ordinate=dBi
Data#1
-180.00 2.643
-179.00 2.590
-178.00 2.527
-177.00 2.444
-176.00 2.333
-175.00 2.282
-174.00 2.158
-173.00 2.035
-172.00 1.887
-171.00 1.742
-170.00 1.596
-169.00 1.380
-168.00 1.230
-167.00 0.897
-166.00 0.788
-165.00 0.419
-164.00 0.174
-163.00 -0.159
-162.00 -0.398
-161.00 -0.814
-160.00 -1.167
-159.00 -1.572
-158.00 -1.856
-157.00 -2.405
-156.00 -2.748
-155.00 -3.325
-154.00 -3.643
-153.00 -4.138
-152.00 -4.787
-151.00 -5.274
-150.00 -5.810
-149.00 -6.498
-148.00 -7.030
-147.00 -7.504
-146.00 -8.014
-145.00 -8.488
-144.00 -8.886
-143.00 -9.178
-142.00 -9.565
-141.00 -9.519
-140.00 -9.782
-139.00 -9.821
-138.00 -9.550
-137.00 -9.559
-136.00 -9.603
-135.00 -9.142
-134.00 -9.146
-133.00 -9.020
-132.00 -8.837
-131.00 -8.489
-130.00 -8.346
-129.00 -8.503
-128.00 -8.485
-127.00 -8.460
-126.00 -8.567
-125.00 -8.486
-124.00 -8.420
-123.00 -8.879
-122.00 -9.045
-121.00 -9.124
-120.00 -9.393
-119.00 -9.603
-118.00 -9.668
-117.00 -9.883
-116.00 -10.146
-115.00 -10.329
-114.00 -10.631
-113.00 -10.685
-112.00 -10.672
-111.00 -10.455
-110.00 -10.827
-109.00 -10.604
-108.00 -10.620
-107.00 -10.226
-106.00 -10.216
-105.00 -10.118
-104.00 -9.898
-103.00 -9.726
-102.00 -9.569
-101.00 -9.299
-100.00 -9.184
-99.00 -9.033
-98.00 -8.804
-97.00 -8.933
-96.00 -8.752
-95.00 -8.767
-94.00 -8.826
-93.00 -8.888
-92.00 -9.087
-91.00 -9.063
-90.00 -9.109
-89.00 -9.306
-88.00 -9.417
-87.00 -9.848
-86.00 -9.850
-85.00 -10.462
-84.00 -10.597
-83.00 -11.001
-82.00 -11.140
-81.00 -11.029
-80.00 -11.436
-79.00 -11.294
-78.00 -11.785
-77.00 -11.844
-76.00 -11.680
-75.00 -11.475
-74.00 -11.065
-73.00 -10.973
-72.00 -10.538
-71.00 -10.368
-70.00 -10.143
-69.00 -9.865
-68.00 -9.388
-67.00 -8.988
-66.00 -8.905
-65.00 -8.703
-64.00 -8.224
-63.00 -7.926
-62.00 -7.937
-61.00 -7.931
-60.00 -7.585
-59.00 -7.629
-58.00 -7.186
-57.00 -7.245
-56.00 -7.081
-55.00 -7.216
-54.00 -7.199
-53.00 -7.131
-52.00 -7.248
-51.00 -7.300
-50.00 -7.473
-49.00 -7.517
-48.00 -7.529
-47.00 -7.633
-46.00 -7.738
-45.00 -7.875
-44.00 -7.965
-43.00 -8.093
-42.00 -8.345
-41.00 -8.646
-40.00 -8.790
-39.00 -8.934
-38.00 -9.152
-37.00 -9.151
-36.00 -9.241
-35.00 -9.562
-34.00 -9.486
-33.00 -9.550
-32.00 -9.770
-31.00 -9.913
-30.00 -9.970
-29.00 -9.942
-28.00 -10.018
-27.00 -10.100
-26.00 -10.129
-25.00 -10.045
-24.00 -10.058
-23.00 -9.716
-22.00 -9.985
-21.00 -9.765
-20.00 -9.746
-19.00 -9.710
-18.00 -9.735
-17.00 -9.486
-16.00 -9.464
-15.00 -9.600
-14.00 -9.509
-13.00 -9.374
-12.00 -9.178
-11.00 -9.185
-10.00 -9.217
-9.00 -9.098
-8.00 -9.172
-7.00 -9.056
-6.00 -8.993
-5.00 -8.982
-4.00 -8.645
-3.00 -9.009
-2.00 -8.984
-1.00 -9.034
0.00 -8.946
1.00 -8.968
2.00 -9.082
3.00 -8.893
4.00 -8.989
5.00 -9.144
6.00 -9.113
7.00 -9.033
8.00 -9.127
9.00 -9.039
10.00 -9.199
11.00 -9.438
12.00 -9.394
13.00 -9.206
14.00 -9.431
15.00 -9.402
16.00 -9.361
17.00 -9.386
18.00 -9.632
19.00 -9.524
20.00 -9.737
21.00 -9.604
22.00 -9.779
23.00 -9.903
24.00 -9.725
25.00 -9.733
26.00 -9.575
27.00 -9.462
28.00 -9.869
29.00 -9.811
30.00 -9.571
31.00 -9.786
32.00 -9.590
33.00 -9.973
34.00 -9.948
35.00 -9.833
36.00 -9.779
37.00 -9.838
38.00 -9.752
39.00 -9.844
40.00 -9.974
41.00 -9.785
42.00 -9.721
43.00 -9.972
44.00 -10.039
45.00 -9.956
46.00 -10.123
47.00 -10.214
48.00 -10.137
49.00 -10.229
50.00 -10.482
51.00 -10.295
52.00 -10.413
53.00 -10.487
54.00 -10.484
55.00 -10.886
56.00 -10.942
57.00 -11.069
58.00 -11.396
59.00 -11.042
60.00 -11.217
61.00 -11.671
62.00 -11.567
63.00 -11.459
64.00 -11.503
65.00 -11.654
66.00 -11.236
67.00 -11.151
68.00 -10.969
69.00 -10.587
70.00 -10.486
71.00 -9.991
72.00 -9.726
73.00 -9.471
74.00 -9.067
75.00 -8.789
76.00 -8.444
77.00 -8.151
78.00 -7.899
79.00 -7.788
80.00 -7.548
81.00 -7.224
82.00 -7.320
83.00 -6.907
84.00 -6.913
85.00 -6.994
86.00 -6.832
87.00 -6.666
88.00 -6.817
89.00 -6.612
90.00 -6.637
91.00 -6.477
92.00 -6.497
93.00 -6.249
94.00 -6.337
95.00 -6.377
96.00 -6.113
97.00 -5.988
98.00 -5.840
99.00 -5.489
100.00 -5.507
101.00 -5.221
102.00 -4.991
103.00 -4.719
104.00 -4.525
105.00 -4.210
106.00 -3.907
107.00 -3.640
108.00 -3.234
109.00 -3.269
110.00 -2.982
111.00 -2.790
112.00 -2.718
113.00 -2.556
114.00 -2.397
115.00 -2.301
116.00 -2.285
117.00 -2.188
118.00 -2.166
119.00 -2.179
120.00 -2.307
121.00 -2.251
122.00 -2.506
123.00 -2.524
124.00 -2.748
125.00 -2.948
126.00 -3.170
127.00 -3.458
128.00 -3.716
129.00 -4.183
130.00 -4.466
131.00 -4.857
132.00 -5.267
133.00 -5.841
134.00 -6.372
135.00 -7.056
136.00 -7.649
137.00 -7.928
138.00 -8.316
139.00 -8.645
140.00 -8.666
141.00 -8.495
142.00 -8.283
143.00 -7.665
144.00 -7.386
145.00 -6.678
146.00 -6.054
147.00 -5.367
148.00 -4.766
149.00 -4.172
150.00 -3.584
151.00 -3.032
152.00 -2.486
153.00 -1.978
154.00 -1.498
155.00 -1.096
156.00 -0.740
157.00 -0.366
158.00 0.088
159.00 0.284
160.00 0.538
161.00 0.949
162.00 1.116
163.00 1.312
164.00 1.564
165.00 1.723
166.00 1.912
167.00 2.076
168.00 2.225
169.00 2.333
170.00 2.435
171.00 2.482
172.00 2.560
173.00 2.689
174.00 2.746
175.00 2.674
176.00 2.718
177.00 2.721
178.00 2.682
179.00 2.675
180.00 2.635
