Ant32 Data File V1.0
Date=21/03/2022
Time=09:45:38
Operator=Cyril
Title=irid
Remarks=Freq. = 1,63 GHz
ScanAxis=Theta
StepAxis=Phi : 0 deg
StepPosition=0
StepUnit=deg
FreqValue=1.630000
RecordIncrement=1
XyzImgAxis=0
XyzImgLabel=0
Abscissa=deg
Ordinate=dBi
Data#1
-180.00 1.554
-179.00 1.446
-178.00 1.417
-177.00 1.421
-176.00 1.314
-175.00 1.147
-174.00 1.063
-173.00 0.929
-172.00 0.749
-171.00 0.613
-170.00 0.427
-169.00 0.273
-168.00 0.029
-167.00 -0.168
-166.00 -0.445
-165.00 -0.732
-164.00 -1.013
-163.00 -1.279
-162.00 -1.723
-161.00 -2.023
-160.00 -2.494
-159.00 -2.746
-158.00 -3.010
-157.00 -3.538
-156.00 -4.077
-155.00 -4.544
-154.00 -5.124
-153.00 -5.494
-152.00 -6.028
-151.00 -6.669
-150.00 -7.202
-149.00 -7.944
-148.00 -8.479
-147.00 -8.793
-146.00 -9.334
-145.00 -9.819
-144.00 -10.326
-143.00 -10.660
-142.00 -10.411
-141.00 -10.637
-140.00 -10.469
-139.00 -10.433
-138.00 -10.086
-137.00 -9.622
-136.00 -9.472
-135.00 -9.129
-134.00 -8.803
-133.00 -8.522
-132.00 -8.293
-131.00 -8.258
-130.00 -8.150
-129.00 -8.000
-128.00 -8.169
-127.00 -7.856
-126.00 -8.012
-125.00 -7.919
-124.00 -8.030
-123.00 -8.119
-122.00 -8.260
-121.00 -8.487
-120.00 -8.649
-119.00 -8.664
-118.00 -8.945
-117.00 -9.339
-116.00 -9.564
-115.00 -9.832
-114.00 -9.871
-113.00 -10.251
-112.00 -10.426
-111.00 -10.273
-110.00 -10.298
-109.00 -10.238
-108.00 -10.201
-107.00 -10.229
-106.00 -9.727
-105.00 -9.795
-104.00 -9.579
-103.00 -9.439
-102.00 -9.352
-101.00 -9.042
-100.00 -8.671
-99.00 -8.330
-98.00 -8.267
-97.00 -8.185
-96.00 -7.906
-95.00 -7.970
-94.00 -7.908
-93.00 -7.662
-92.00 -7.824
-91.00 -7.944
-90.00 -8.004
-89.00 -7.968
-88.00 -8.040
-87.00 -8.224
-86.00 -8.440
-85.00 -8.571
-84.00 -8.687
-83.00 -8.889
-82.00 -9.290
-81.00 -9.349
-80.00 -9.803
-79.00 -9.933
-78.00 -10.260
-77.00 -10.319
-76.00 -10.454
-75.00 -10.500
-74.00 -10.829
-73.00 -10.080
-72.00 -10.507
-71.00 -10.011
-70.00 -10.051
-69.00 -9.750
-68.00 -9.655
-67.00 -9.278
-66.00 -9.014
-65.00 -8.702
-64.00 -8.347
-63.00 -8.183
-62.00 -7.909
-61.00 -7.661
-60.00 -7.380
-59.00 -7.220
-58.00 -6.959
-57.00 -6.875
-56.00 -6.824
-55.00 -6.572
-54.00 -6.563
-53.00 -6.448
-52.00 -6.437
-51.00 -6.375
-50.00 -6.426
-49.00 -6.355
-48.00 -6.352
-47.00 -6.286
-46.00 -6.597
-45.00 -6.293
-44.00 -6.712
-43.00 -6.496
-42.00 -6.597
-41.00 -6.610
-40.00 -6.716
-39.00 -7.103
-38.00 -6.906
-37.00 -7.150
-36.00 -7.192
-35.00 -7.230
-34.00 -7.386
-33.00 -7.634
-32.00 -7.651
-31.00 -7.698
-30.00 -7.757
-29.00 -8.000
-28.00 -8.059
-27.00 -8.249
-26.00 -8.515
-25.00 -8.140
-24.00 -8.350
-23.00 -8.378
-22.00 -8.539
-21.00 -8.227
-20.00 -8.374
-19.00 -8.473
-18.00 -8.599
-17.00 -8.667
-16.00 -8.463
-15.00 -8.442
-14.00 -8.228
-13.00 -8.334
-12.00 -8.266
-11.00 -8.213
-10.00 -8.218
-9.00 -8.025
-8.00 -8.075
-7.00 -8.181
-6.00 -8.183
-5.00 -8.116
-4.00 -8.084
-3.00 -7.998
-2.00 -7.834
-1.00 -8.045
0.00 -8.051
1.00 -7.892
2.00 -7.935
3.00 -7.874
4.00 -8.160
5.00 -8.063
6.00 -8.069
7.00 -8.022
8.00 -8.049
9.00 -7.785
10.00 -7.895
11.00 -7.867
12.00 -7.844
13.00 -8.027
14.00 -8.020
15.00 -7.873
16.00 -8.240
17.00 -8.023
18.00 -7.809
19.00 -8.052
20.00 -8.030
21.00 -7.960
22.00 -7.930
23.00 -7.841
24.00 -7.916
25.00 -7.712
26.00 -7.757
27.00 -7.706
28.00 -7.805
29.00 -7.743
30.00 -7.742
31.00 -7.668
32.00 -7.774
33.00 -7.729
34.00 -7.716
35.00 -7.816
36.00 -7.627
37.00 -7.379
38.00 -7.688
39.00 -7.711
40.00 -7.636
41.00 -7.689
42.00 -7.788
43.00 -7.783
44.00 -7.772
45.00 -7.991
46.00 -7.743
47.00 -7.732
48.00 -7.895
49.00 -7.890
50.00 -7.957
51.00 -7.962
52.00 -7.883
53.00 -8.237
54.00 -8.314
55.00 -8.159
56.00 -8.277
57.00 -8.380
58.00 -8.309
59.00 -8.311
60.00 -8.376
61.00 -8.612
62.00 -8.425
63.00 -8.579
64.00 -8.353
65.00 -8.412
66.00 -8.310
67.00 -8.262
68.00 -8.161
69.00 -8.051
70.00 -8.099
71.00 -7.710
72.00 -7.676
73.00 -7.732
74.00 -7.240
75.00 -7.231
76.00 -7.130
77.00 -6.738
78.00 -6.826
79.00 -6.621
80.00 -6.537
81.00 -6.299
82.00 -6.227
83.00 -6.183
84.00 -6.005
85.00 -6.004
86.00 -6.033
87.00 -5.849
88.00 -5.764
89.00 -5.825
90.00 -5.732
91.00 -5.879
92.00 -5.824
93.00 -5.771
94.00 -5.477
95.00 -5.340
96.00 -5.295
97.00 -5.213
98.00 -5.096
99.00 -5.009
100.00 -4.821
101.00 -4.697
102.00 -4.432
103.00 -4.114
104.00 -4.050
105.00 -3.945
106.00 -3.605
107.00 -3.436
108.00 -3.208
109.00 -3.100
110.00 -2.964
111.00 -2.772
112.00 -2.693
113.00 -2.613
114.00 -2.460
115.00 -2.390
116.00 -2.342
117.00 -2.294
118.00 -2.450
119.00 -2.431
120.00 -2.557
121.00 -2.648
122.00 -2.793
123.00 -2.931
124.00 -3.045
125.00 -3.273
126.00 -3.464
127.00 -3.793
128.00 -3.975
129.00 -4.501
130.00 -4.810
131.00 -5.335
132.00 -5.769
133.00 -6.030
134.00 -6.683
135.00 -7.199
136.00 -7.861
137.00 -8.370
138.00 -8.550
139.00 -9.256
140.00 -9.170
141.00 -9.105
142.00 -8.856
143.00 -8.548
144.00 -8.163
145.00 -7.467
146.00 -6.827
147.00 -6.207
148.00 -5.701
149.00 -5.085
150.00 -4.488
151.00 -3.959
152.00 -3.404
153.00 -2.808
154.00 -2.450
155.00 -2.056
156.00 -1.701
157.00 -1.298
158.00 -1.022
159.00 -0.669
160.00 -0.340
161.00 -0.167
162.00 0.152
163.00 0.425
164.00 0.581
165.00 0.779
166.00 0.915
167.00 1.131
168.00 1.181
169.00 1.277
170.00 1.422
171.00 1.451
172.00 1.507
173.00 1.625
174.00 1.655
175.00 1.679
176.00 1.673
177.00 1.630
178.00 1.582
179.00 1.605
180.00 1.593
