Ant32 Data File V1.0
Date=21/03/2022
Time=09:49:05
Operator=Cyril
Title=irid
Remarks=Freq. = 1,611 GHz
ScanAxis=Theta
StepAxis=Phi : 90 deg
StepPosition=90
StepUnit=deg
FreqValue=1.611000
RecordIncrement=1
XyzImgAxis=0
XyzImgLabel=0
Abscissa=deg
Ordinate=dBi
Data#1
-180.00 1.991
-179.00 2.006
-178.00 1.996
-177.00 1.851
-176.00 1.802
-175.00 1.653
-174.00 1.540
-173.00 1.475
-172.00 1.315
-171.00 1.181
-170.00 1.015
-169.00 0.803
-168.00 0.666
-167.00 0.404
-166.00 0.261
-165.00 -0.085
-164.00 -0.302
-163.00 -0.607
-162.00 -0.946
-161.00 -1.214
-160.00 -1.710
-159.00 -2.094
-158.00 -2.437
-157.00 -2.952
-156.00 -3.359
-155.00 -4.095
-154.00 -4.581
-153.00 -5.118
-152.00 -5.890
-151.00 -6.637
-150.00 -7.401
-149.00 -8.477
-148.00 -9.208
-147.00 -10.062
-146.00 -11.169
-145.00 -12.311
-144.00 -13.778
-143.00 -14.647
-142.00 -15.947
-141.00 -16.233
-140.00 -16.870
-139.00 -16.143
-138.00 -15.839
-137.00 -14.750
-136.00 -14.097
-135.00 -13.421
-134.00 -12.693
-133.00 -12.277
-132.00 -11.435
-131.00 -10.645
-130.00 -10.595
-129.00 -10.142
-128.00 -10.007
-127.00 -9.616
-126.00 -9.406
-125.00 -9.554
-124.00 -9.536
-123.00 -9.348
-122.00 -9.708
-121.00 -9.363
-120.00 -9.603
-119.00 -9.850
-118.00 -9.891
-117.00 -10.040
-116.00 -10.462
-115.00 -10.688
-114.00 -10.742
-113.00 -11.182
-112.00 -11.416
-111.00 -11.700
-110.00 -12.177
-109.00 -12.200
-108.00 -12.715
-107.00 -12.703
-106.00 -12.418
-105.00 -12.536
-104.00 -12.278
-103.00 -11.845
-102.00 -11.948
-101.00 -11.487
-100.00 -11.002
-99.00 -10.761
-98.00 -10.649
-97.00 -10.192
-96.00 -10.037
-95.00 -9.813
-94.00 -9.623
-93.00 -9.645
-92.00 -9.384
-91.00 -9.335
-90.00 -9.358
-89.00 -9.116
-88.00 -9.307
-87.00 -9.437
-86.00 -9.461
-85.00 -9.761
-84.00 -9.996
-83.00 -10.229
-82.00 -10.178
-81.00 -10.596
-80.00 -10.757
-79.00 -11.211
-78.00 -11.280
-77.00 -11.346
-76.00 -11.651
-75.00 -11.612
-74.00 -11.767
-73.00 -11.804
-72.00 -11.877
-71.00 -11.460
-70.00 -11.595
-69.00 -11.070
-68.00 -11.084
-67.00 -10.645
-66.00 -10.434
-65.00 -10.246
-64.00 -9.872
-63.00 -9.417
-62.00 -9.267
-61.00 -9.016
-60.00 -8.833
-59.00 -8.589
-58.00 -8.138
-57.00 -8.204
-56.00 -7.930
-55.00 -7.890
-54.00 -7.678
-53.00 -7.723
-52.00 -7.505
-51.00 -7.367
-50.00 -7.321
-49.00 -7.305
-48.00 -7.389
-47.00 -7.473
-46.00 -7.362
-45.00 -7.430
-44.00 -7.234
-43.00 -7.509
-42.00 -7.570
-41.00 -7.631
-40.00 -7.480
-39.00 -7.710
-38.00 -7.900
-37.00 -7.864
-36.00 -8.014
-35.00 -7.994
-34.00 -8.067
-33.00 -8.157
-32.00 -8.029
-31.00 -8.414
-30.00 -8.324
-29.00 -8.268
-28.00 -8.587
-27.00 -8.530
-26.00 -8.664
-25.00 -8.609
-24.00 -8.581
-23.00 -8.813
-22.00 -8.776
-21.00 -9.008
-20.00 -8.877
-19.00 -8.995
-18.00 -9.211
-17.00 -8.856
-16.00 -8.878
-15.00 -9.122
-14.00 -9.144
-13.00 -9.096
-12.00 -9.092
-11.00 -8.983
-10.00 -8.889
-9.00 -8.795
-8.00 -8.863
-7.00 -8.775
-6.00 -8.703
-5.00 -8.579
-4.00 -8.321
-3.00 -8.320
-2.00 -8.316
-1.00 -8.149
0.00 -8.160
1.00 -8.139
2.00 -8.090
3.00 -8.038
4.00 -7.936
5.00 -7.888
6.00 -7.888
7.00 -7.761
8.00 -7.670
9.00 -7.523
10.00 -7.570
11.00 -7.422
12.00 -7.158
13.00 -7.279
14.00 -7.115
15.00 -7.023
16.00 -6.916
17.00 -7.004
18.00 -6.639
19.00 -6.531
20.00 -6.560
21.00 -6.470
22.00 -6.235
23.00 -6.261
24.00 -6.164
25.00 -6.282
26.00 -6.072
27.00 -6.032
28.00 -6.126
29.00 -6.014
30.00 -5.934
31.00 -6.006
32.00 -5.880
33.00 -5.881
34.00 -5.918
35.00 -5.895
36.00 -5.906
37.00 -5.766
38.00 -5.995
39.00 -5.968
40.00 -5.924
41.00 -6.026
42.00 -5.936
43.00 -6.199
44.00 -6.094
45.00 -6.248
46.00 -6.423
47.00 -6.380
48.00 -6.547
49.00 -6.543
50.00 -6.528
51.00 -6.666
52.00 -6.851
53.00 -6.919
54.00 -6.713
55.00 -6.940
56.00 -6.967
57.00 -6.915
58.00 -6.967
59.00 -6.947
60.00 -6.828
61.00 -6.484
62.00 -6.461
63.00 -6.491
64.00 -6.328
65.00 -6.079
66.00 -5.861
67.00 -5.736
68.00 -5.363
69.00 -5.251
70.00 -5.119
71.00 -4.991
72.00 -4.738
73.00 -4.580
74.00 -4.491
75.00 -4.470
76.00 -4.356
77.00 -4.356
78.00 -4.281
79.00 -4.295
80.00 -4.324
81.00 -4.297
82.00 -4.567
83.00 -4.767
84.00 -4.807
85.00 -5.102
86.00 -5.172
87.00 -5.448
88.00 -5.750
89.00 -5.801
90.00 -6.200
91.00 -6.374
92.00 -6.722
93.00 -6.885
94.00 -7.044
95.00 -7.020
96.00 -6.964
97.00 -6.851
98.00 -6.749
99.00 -6.420
100.00 -6.008
101.00 -5.779
102.00 -5.192
103.00 -4.869
104.00 -4.352
105.00 -4.073
106.00 -3.714
107.00 -3.395
108.00 -3.094
109.00 -2.900
110.00 -2.771
111.00 -2.496
112.00 -2.518
113.00 -2.430
114.00 -2.331
115.00 -2.286
116.00 -2.386
117.00 -2.459
118.00 -2.500
119.00 -2.759
120.00 -3.003
121.00 -3.209
122.00 -3.601
123.00 -3.835
124.00 -4.249
125.00 -4.721
126.00 -5.170
127.00 -5.741
128.00 -6.463
129.00 -7.161
130.00 -8.044
131.00 -8.828
132.00 -10.152
133.00 -11.108
134.00 -12.692
135.00 -14.269
136.00 -16.260
137.00 -17.476
138.00 -18.437
139.00 -17.390
140.00 -15.459
141.00 -13.985
142.00 -12.581
143.00 -11.037
144.00 -9.798
145.00 -8.535
146.00 -7.497
147.00 -6.833
148.00 -6.016
149.00 -5.188
150.00 -4.515
151.00 -3.935
152.00 -3.286
153.00 -2.766
154.00 -2.372
155.00 -1.830
156.00 -1.438
157.00 -1.052
158.00 -0.682
159.00 -0.408
160.00 -0.108
161.00 0.146
162.00 0.412
163.00 0.612
164.00 0.852
165.00 1.035
166.00 1.151
167.00 1.301
168.00 1.509
169.00 1.592
170.00 1.671
171.00 1.767
172.00 1.833
173.00 1.895
174.00 1.945
175.00 2.012
176.00 2.012
177.00 1.992
178.00 2.008
179.00 2.034
180.00 2.102
