Ant32 Data File V1.0
Date=21/03/2022
Time=09:45:38
Operator=Cyril
Title=irid
Remarks=Freq. = 1,619 GHz
ScanAxis=Theta
StepAxis=Phi : 0 deg
StepPosition=0
StepUnit=deg
FreqValue=1.619000
RecordIncrement=1
XyzImgAxis=0
XyzImgLabel=0
Abscissa=deg
Ordinate=dBi
Data#1
-180.00 3.370
-179.00 3.323
-178.00 3.315
-177.00 3.201
-176.00 3.107
-175.00 3.060
-174.00 2.885
-173.00 2.798
-172.00 2.700
-171.00 2.537
-170.00 2.357
-169.00 2.156
-168.00 1.956
-167.00 1.750
-166.00 1.503
-165.00 1.270
-164.00 1.099
-163.00 0.817
-162.00 0.499
-161.00 0.168
-160.00 -0.175
-159.00 -0.447
-158.00 -0.844
-157.00 -1.222
-156.00 -1.570
-155.00 -2.011
-154.00 -2.419
-153.00 -2.784
-152.00 -3.338
-151.00 -3.788
-150.00 -4.275
-149.00 -4.723
-148.00 -5.250
-147.00 -5.635
-146.00 -6.121
-145.00 -6.592
-144.00 -7.040
-143.00 -7.424
-142.00 -7.671
-141.00 -8.040
-140.00 -8.128
-139.00 -8.591
-138.00 -8.806
-137.00 -8.951
-136.00 -9.447
-135.00 -9.175
-134.00 -9.599
-133.00 -9.620
-132.00 -9.798
-131.00 -10.038
-130.00 -9.954
-129.00 -10.579
-128.00 -10.486
-127.00 -10.571
-126.00 -11.389
-125.00 -11.918
-124.00 -12.065
-123.00 -12.423
-122.00 -12.848
-121.00 -13.865
-120.00 -14.197
-119.00 -15.114
-118.00 -15.468
-117.00 -16.204
-116.00 -16.706
-115.00 -16.459
-114.00 -16.805
-113.00 -16.935
-112.00 -16.873
-111.00 -16.403
-110.00 -16.636
-109.00 -16.219
-108.00 -15.997
-107.00 -15.163
-106.00 -15.282
-105.00 -14.836
-104.00 -14.354
-103.00 -14.320
-102.00 -14.296
-101.00 -14.550
-100.00 -14.699
-99.00 -14.289
-98.00 -15.047
-97.00 -15.010
-96.00 -15.413
-95.00 -15.083
-94.00 -16.086
-93.00 -16.591
-92.00 -17.479
-91.00 -18.494
-90.00 -19.889
-89.00 -20.733
-88.00 -22.240
-87.00 -26.108
-86.00 -30.622
-85.00 -38.244
-84.00 -37.472
-83.00 -33.627
-82.00 -27.346
-81.00 -23.753
-80.00 -22.570
-79.00 -20.673
-78.00 -18.987
-77.00 -17.640
-76.00 -16.055
-75.00 -16.172
-74.00 -15.053
-73.00 -14.364
-72.00 -13.811
-71.00 -13.718
-70.00 -13.251
-69.00 -13.151
-68.00 -12.662
-67.00 -12.632
-66.00 -12.523
-65.00 -12.658
-64.00 -12.589
-63.00 -12.649
-62.00 -12.746
-61.00 -13.263
-60.00 -13.879
-59.00 -14.250
-58.00 -13.828
-57.00 -14.920
-56.00 -15.230
-55.00 -16.042
-54.00 -16.779
-53.00 -17.682
-52.00 -19.551
-51.00 -19.349
-50.00 -21.945
-49.00 -23.056
-48.00 -23.707
-47.00 -25.165
-46.00 -26.963
-45.00 -26.345
-44.00 -23.548
-43.00 -23.881
-42.00 -20.866
-41.00 -20.594
-40.00 -18.699
-39.00 -17.903
-38.00 -17.553
-37.00 -16.549
-36.00 -15.460
-35.00 -14.169
-34.00 -14.040
-33.00 -13.615
-32.00 -12.896
-31.00 -12.645
-30.00 -12.257
-29.00 -11.777
-28.00 -11.619
-27.00 -11.729
-26.00 -11.389
-25.00 -10.856
-24.00 -10.757
-23.00 -10.666
-22.00 -10.265
-21.00 -10.111
-20.00 -10.126
-19.00 -9.827
-18.00 -10.025
-17.00 -9.924
-16.00 -9.959
-15.00 -9.981
-14.00 -10.117
-13.00 -10.151
-12.00 -9.964
-11.00 -10.174
-10.00 -10.004
-9.00 -10.382
-8.00 -10.294
-7.00 -10.357
-6.00 -10.389
-5.00 -10.347
-4.00 -10.621
-3.00 -10.430
-2.00 -10.754
-1.00 -10.860
0.00 -10.815
1.00 -11.003
2.00 -10.983
3.00 -11.051
4.00 -11.133
5.00 -11.246
6.00 -11.465
7.00 -11.323
8.00 -11.692
9.00 -11.829
10.00 -11.990
11.00 -12.034
12.00 -12.242
13.00 -12.242
14.00 -12.399
15.00 -12.644
16.00 -12.884
17.00 -13.123
18.00 -13.344
19.00 -13.255
20.00 -13.326
21.00 -13.416
22.00 -13.806
23.00 -14.207
24.00 -14.018
25.00 -14.503
26.00 -14.643
27.00 -14.971
28.00 -14.627
29.00 -14.811
30.00 -15.179
31.00 -15.411
32.00 -15.071
33.00 -16.061
34.00 -15.980
35.00 -16.683
36.00 -16.394
37.00 -17.200
38.00 -17.118
39.00 -17.139
40.00 -17.274
41.00 -18.216
42.00 -17.663
43.00 -18.523
44.00 -17.838
45.00 -18.360
46.00 -18.356
47.00 -18.498
48.00 -17.900
49.00 -18.248
50.00 -18.100
51.00 -18.024
52.00 -17.586
53.00 -17.568
54.00 -17.259
55.00 -16.884
56.00 -17.160
57.00 -16.626
58.00 -16.212
59.00 -15.794
60.00 -15.193
61.00 -15.388
62.00 -15.379
63.00 -14.813
64.00 -14.634
65.00 -14.438
66.00 -13.608
67.00 -13.434
68.00 -13.084
69.00 -12.734
70.00 -12.204
71.00 -12.134
72.00 -11.767
73.00 -11.421
74.00 -11.165
75.00 -11.140
76.00 -10.618
77.00 -10.557
78.00 -10.346
79.00 -10.411
80.00 -10.137
81.00 -10.019
82.00 -9.959
83.00 -9.890
84.00 -9.868
85.00 -9.657
86.00 -9.562
87.00 -9.452
88.00 -9.343
89.00 -9.603
90.00 -9.325
91.00 -9.229
92.00 -9.026
93.00 -8.808
94.00 -8.692
95.00 -8.330
96.00 -8.056
97.00 -7.832
98.00 -7.406
99.00 -7.021
100.00 -6.671
101.00 -6.198
102.00 -5.846
103.00 -5.525
104.00 -5.290
105.00 -4.908
106.00 -4.558
107.00 -4.281
108.00 -3.999
109.00 -3.672
110.00 -3.481
111.00 -3.255
112.00 -3.063
113.00 -3.009
114.00 -2.862
115.00 -2.678
116.00 -2.721
117.00 -2.694
118.00 -2.519
119.00 -2.656
120.00 -2.697
121.00 -2.792
122.00 -2.835
123.00 -3.005
124.00 -3.240
125.00 -3.299
126.00 -3.699
127.00 -3.903
128.00 -4.254
129.00 -4.528
130.00 -4.991
131.00 -5.289
132.00 -5.905
133.00 -6.238
134.00 -6.723
135.00 -7.215
136.00 -7.553
137.00 -8.075
138.00 -8.110
139.00 -8.199
140.00 -7.971
141.00 -7.819
142.00 -7.208
143.00 -6.578
144.00 -6.102
145.00 -5.501
146.00 -4.959
147.00 -4.249
148.00 -3.627
149.00 -3.016
150.00 -2.527
151.00 -1.975
152.00 -1.524
153.00 -0.988
154.00 -0.684
155.00 -0.183
156.00 0.225
157.00 0.484
158.00 0.855
159.00 1.188
160.00 1.487
161.00 1.727
162.00 1.939
163.00 2.131
164.00 2.293
165.00 2.512
166.00 2.680
167.00 2.820
168.00 2.948
169.00 3.093
170.00 3.179
171.00 3.301
172.00 3.314
173.00 3.423
174.00 3.455
175.00 3.471
176.00 3.476
177.00 3.493
178.00 3.439
179.00 3.369
180.00 3.401
