Ant32 Data File V1.0
Date=21/03/2022
Time=09:49:05
Operator=Cyril
Title=irid
Remarks=Freq. = 1,623 GHz
ScanAxis=Theta
StepAxis=Phi : 90 deg
StepPosition=90
StepUnit=deg
FreqValue=1.623000
RecordIncrement=1
XyzImgAxis=0
XyzImgLabel=0
Abscissa=deg
Ordinate=dBi
Data#1
-180.00 3.211
-179.00 3.171
-178.00 3.117
-177.00 3.033
-176.00 2.959
-175.00 2.910
-174.00 2.790
-173.00 2.637
-172.00 2.534
-171.00 2.387
-170.00 2.278
-169.00 2.065
-168.00 1.897
-167.00 1.638
-166.00 1.432
-165.00 1.160
-164.00 0.957
-163.00 0.581
-162.00 0.246
-161.00 -0.015
-160.00 -0.494
-159.00 -0.773
-158.00 -1.195
-157.00 -1.612
-156.00 -2.172
-155.00 -2.577
-154.00 -3.166
-153.00 -3.761
-152.00 -4.383
-151.00 -5.078
-150.00 -5.721
-149.00 -6.643
-148.00 -7.344
-147.00 -8.030
-146.00 -9.168
-145.00 -10.167
-144.00 -11.335
-143.00 -11.708
-142.00 -12.876
-141.00 -13.751
-140.00 -14.587
-139.00 -15.074
-138.00 -14.869
-137.00 -14.763
-136.00 -14.290
-135.00 -13.923
-134.00 -13.473
-133.00 -12.642
-132.00 -12.180
-131.00 -11.664
-130.00 -11.302
-129.00 -11.275
-128.00 -10.967
-127.00 -10.785
-126.00 -10.456
-125.00 -10.490
-124.00 -10.334
-123.00 -10.498
-122.00 -10.307
-121.00 -10.302
-120.00 -10.340
-119.00 -10.596
-118.00 -10.764
-117.00 -10.958
-116.00 -11.180
-115.00 -11.174
-114.00 -11.130
-113.00 -11.202
-112.00 -11.453
-111.00 -11.417
-110.00 -11.740
-109.00 -11.437
-108.00 -11.595
-107.00 -11.635
-106.00 -11.827
-105.00 -11.606
-104.00 -11.811
-103.00 -11.283
-102.00 -11.856
-101.00 -11.647
-100.00 -11.393
-99.00 -11.317
-98.00 -11.380
-97.00 -11.434
-96.00 -11.227
-95.00 -11.218
-94.00 -11.146
-93.00 -11.148
-92.00 -11.297
-91.00 -11.193
-90.00 -11.123
-89.00 -11.071
-88.00 -11.240
-87.00 -11.161
-86.00 -11.515
-85.00 -11.515
-84.00 -11.714
-83.00 -11.783
-82.00 -12.004
-81.00 -12.114
-80.00 -12.198
-79.00 -12.648
-78.00 -12.545
-77.00 -13.299
-76.00 -13.459
-75.00 -13.576
-74.00 -14.111
-73.00 -13.893
-72.00 -14.345
-71.00 -14.847
-70.00 -15.442
-69.00 -15.415
-68.00 -15.872
-67.00 -15.340
-66.00 -15.801
-65.00 -16.005
-64.00 -16.005
-63.00 -16.334
-62.00 -16.144
-61.00 -16.217
-60.00 -16.005
-59.00 -15.961
-58.00 -15.597
-57.00 -15.530
-56.00 -15.019
-55.00 -14.503
-54.00 -14.074
-53.00 -14.019
-52.00 -13.507
-51.00 -13.110
-50.00 -13.095
-49.00 -12.478
-48.00 -12.539
-47.00 -11.812
-46.00 -11.560
-45.00 -11.286
-44.00 -11.013
-43.00 -10.911
-42.00 -10.312
-41.00 -10.387
-40.00 -9.999
-39.00 -10.134
-38.00 -9.687
-37.00 -9.939
-36.00 -9.495
-35.00 -9.349
-34.00 -9.387
-33.00 -9.206
-32.00 -9.145
-31.00 -9.135
-30.00 -9.097
-29.00 -9.031
-28.00 -9.119
-27.00 -9.084
-26.00 -9.342
-25.00 -9.247
-24.00 -9.129
-23.00 -9.075
-22.00 -9.092
-21.00 -9.318
-20.00 -9.277
-19.00 -9.371
-18.00 -9.461
-17.00 -9.567
-16.00 -9.866
-15.00 -9.806
-14.00 -9.718
-13.00 -9.709
-12.00 -10.032
-11.00 -9.987
-10.00 -10.169
-9.00 -10.230
-8.00 -10.474
-7.00 -10.568
-6.00 -10.482
-5.00 -10.778
-4.00 -10.633
-3.00 -10.687
-2.00 -11.081
-1.00 -10.987
0.00 -11.075
1.00 -11.397
2.00 -11.436
3.00 -11.543
4.00 -11.771
5.00 -11.630
6.00 -11.811
7.00 -11.835
8.00 -11.963
9.00 -12.331
10.00 -12.752
11.00 -12.551
12.00 -12.705
13.00 -12.983
14.00 -13.489
15.00 -13.254
16.00 -13.587
17.00 -14.128
18.00 -14.445
19.00 -14.708
20.00 -14.879
21.00 -14.620
22.00 -14.866
23.00 -14.681
24.00 -14.982
25.00 -14.838
26.00 -15.362
27.00 -15.267
28.00 -15.298
29.00 -15.226
30.00 -15.065
31.00 -15.279
32.00 -15.083
33.00 -15.281
34.00 -15.093
35.00 -14.657
36.00 -15.202
37.00 -14.526
38.00 -14.520
39.00 -14.734
40.00 -14.491
41.00 -13.950
42.00 -14.045
43.00 -13.991
44.00 -13.518
45.00 -13.169
46.00 -13.086
47.00 -13.087
48.00 -12.927
49.00 -12.485
50.00 -12.120
51.00 -12.346
52.00 -12.114
53.00 -11.857
54.00 -11.478
55.00 -11.309
56.00 -11.152
57.00 -10.921
58.00 -10.598
59.00 -10.388
60.00 -10.518
61.00 -10.264
62.00 -10.155
63.00 -9.916
64.00 -9.926
65.00 -9.750
66.00 -9.738
67.00 -9.686
68.00 -9.782
69.00 -9.502
70.00 -9.846
71.00 -9.767
72.00 -9.827
73.00 -9.821
74.00 -9.865
75.00 -10.261
76.00 -10.439
77.00 -10.748
78.00 -10.732
79.00 -11.444
80.00 -11.382
81.00 -12.193
82.00 -12.452
83.00 -12.860
84.00 -13.987
85.00 -14.145
86.00 -14.512
87.00 -14.877
88.00 -15.147
89.00 -14.712
90.00 -14.486
91.00 -13.237
92.00 -12.424
93.00 -11.417
94.00 -11.014
95.00 -10.075
96.00 -9.344
97.00 -8.457
98.00 -7.764
99.00 -7.129
100.00 -6.659
101.00 -6.187
102.00 -5.732
103.00 -5.258
104.00 -4.822
105.00 -4.469
106.00 -4.340
107.00 -4.068
108.00 -3.832
109.00 -3.707
110.00 -3.664
111.00 -3.706
112.00 -3.646
113.00 -3.688
114.00 -3.848
115.00 -3.887
116.00 -4.076
117.00 -4.367
118.00 -4.657
119.00 -5.075
120.00 -5.395
121.00 -5.786
122.00 -6.001
123.00 -6.593
124.00 -7.089
125.00 -7.785
126.00 -8.436
127.00 -9.129
128.00 -10.010
129.00 -10.882
130.00 -11.640
131.00 -12.383
132.00 -13.226
133.00 -13.842
134.00 -14.145
135.00 -13.573
136.00 -13.227
137.00 -12.244
138.00 -11.502
139.00 -10.300
140.00 -9.436
141.00 -8.503
142.00 -7.576
143.00 -6.836
144.00 -5.873
145.00 -5.235
146.00 -4.569
147.00 -4.018
148.00 -3.479
149.00 -2.875
150.00 -2.289
151.00 -1.896
152.00 -1.496
153.00 -1.078
154.00 -0.623
155.00 -0.318
156.00 0.023
157.00 0.424
158.00 0.633
159.00 0.953
160.00 1.236
161.00 1.362
162.00 1.714
163.00 1.855
164.00 2.054
165.00 2.286
166.00 2.412
167.00 2.599
168.00 2.730
169.00 2.727
170.00 2.885
171.00 2.973
172.00 3.069
173.00 3.141
174.00 3.188
175.00 3.213
176.00 3.237
177.00 3.283
178.00 3.262
179.00 3.259
180.00 3.216
