Ant32 Data File V1.0
Date=21/03/2022
Time=09:49:05
Operator=Cyril
Title=irid
Remarks=Freq. = 1,616 GHz
ScanAxis=Theta
StepAxis=Phi : 90 deg
StepPosition=90
StepUnit=deg
FreqValue=1.616000
RecordIncrement=1
XyzImgAxis=0
XyzImgLabel=0
Abscissa=deg
Ordinate=dBi
Data#1
-180.00 3.229
-179.00 3.098
-178.00 3.060
-177.00 3.015
-176.00 2.973
-175.00 2.864
-174.00 2.721
-173.00 2.646
-172.00 2.434
-171.00 2.363
-170.00 2.185
-169.00 2.030
-168.00 1.767
-167.00 1.551
-166.00 1.374
-165.00 1.072
-164.00 0.770
-163.00 0.566
-162.00 0.235
-161.00 -0.206
-160.00 -0.543
-159.00 -0.936
-158.00 -1.409
-157.00 -1.821
-156.00 -2.245
-155.00 -2.785
-154.00 -3.401
-153.00 -4.084
-152.00 -4.788
-151.00 -5.382
-150.00 -6.207
-149.00 -6.946
-148.00 -7.932
-147.00 -8.732
-146.00 -10.002
-145.00 -10.793
-144.00 -11.676
-143.00 -13.192
-142.00 -13.649
-141.00 -14.352
-140.00 -14.766
-139.00 -14.448
-138.00 -13.938
-137.00 -13.363
-136.00 -12.464
-135.00 -12.022
-134.00 -11.335
-133.00 -10.734
-132.00 -10.421
-131.00 -9.770
-130.00 -9.269
-129.00 -9.143
-128.00 -8.833
-127.00 -8.523
-126.00 -8.400
-125.00 -8.377
-124.00 -8.202
-123.00 -8.386
-122.00 -8.283
-121.00 -8.459
-120.00 -8.547
-119.00 -8.631
-118.00 -8.753
-117.00 -9.023
-116.00 -9.366
-115.00 -9.435
-114.00 -9.877
-113.00 -9.872
-112.00 -10.100
-111.00 -10.123
-110.00 -10.296
-109.00 -10.555
-108.00 -10.623
-107.00 -10.974
-106.00 -10.708
-105.00 -10.502
-104.00 -10.386
-103.00 -10.335
-102.00 -10.054
-101.00 -9.733
-100.00 -9.484
-99.00 -9.380
-98.00 -9.026
-97.00 -9.087
-96.00 -8.779
-95.00 -8.675
-94.00 -8.619
-93.00 -8.610
-92.00 -8.565
-91.00 -8.309
-90.00 -8.390
-89.00 -8.223
-88.00 -8.387
-87.00 -8.638
-86.00 -8.829
-85.00 -8.965
-84.00 -9.088
-83.00 -9.327
-82.00 -9.673
-81.00 -9.851
-80.00 -10.252
-79.00 -10.833
-78.00 -11.041
-77.00 -11.458
-76.00 -11.775
-75.00 -12.126
-74.00 -12.909
-73.00 -12.820
-72.00 -12.960
-71.00 -13.696
-70.00 -13.706
-69.00 -14.064
-68.00 -13.859
-67.00 -13.506
-66.00 -13.331
-65.00 -13.081
-64.00 -12.721
-63.00 -12.489
-62.00 -12.199
-61.00 -11.966
-60.00 -11.590
-59.00 -11.165
-58.00 -10.887
-57.00 -10.755
-56.00 -10.658
-55.00 -10.328
-54.00 -10.215
-53.00 -10.313
-52.00 -10.027
-51.00 -9.967
-50.00 -9.715
-49.00 -9.903
-48.00 -9.747
-47.00 -9.756
-46.00 -9.738
-45.00 -9.987
-44.00 -9.733
-43.00 -9.840
-42.00 -9.855
-41.00 -9.947
-40.00 -10.113
-39.00 -10.304
-38.00 -10.386
-37.00 -10.543
-36.00 -10.623
-35.00 -10.675
-34.00 -11.110
-33.00 -10.996
-32.00 -11.359
-31.00 -11.294
-30.00 -11.251
-29.00 -11.853
-28.00 -11.824
-27.00 -12.113
-26.00 -12.050
-25.00 -12.287
-24.00 -12.260
-23.00 -12.679
-22.00 -12.426
-21.00 -12.478
-20.00 -12.618
-19.00 -12.941
-18.00 -12.846
-17.00 -12.830
-16.00 -12.626
-15.00 -12.580
-14.00 -13.004
-13.00 -12.728
-12.00 -12.553
-11.00 -12.269
-10.00 -12.272
-9.00 -12.324
-8.00 -12.405
-7.00 -12.260
-6.00 -12.208
-5.00 -11.888
-4.00 -11.844
-3.00 -11.593
-2.00 -11.638
-1.00 -11.380
0.00 -11.200
1.00 -11.443
2.00 -11.295
3.00 -10.898
4.00 -10.907
5.00 -10.930
6.00 -10.753
7.00 -10.812
8.00 -10.645
9.00 -10.574
10.00 -10.366
11.00 -10.296
12.00 -10.200
13.00 -9.960
14.00 -10.497
15.00 -9.677
16.00 -9.799
17.00 -9.899
18.00 -9.685
19.00 -9.873
20.00 -9.698
21.00 -9.759
22.00 -9.647
23.00 -9.357
24.00 -9.343
25.00 -9.179
26.00 -9.060
27.00 -9.127
28.00 -8.997
29.00 -9.195
30.00 -8.968
31.00 -9.004
32.00 -8.801
33.00 -8.869
34.00 -8.631
35.00 -8.870
36.00 -8.756
37.00 -8.963
38.00 -8.814
39.00 -8.829
40.00 -8.900
41.00 -8.787
42.00 -8.878
43.00 -8.876
44.00 -8.821
45.00 -8.922
46.00 -8.906
47.00 -8.992
48.00 -8.995
49.00 -9.071
50.00 -8.962
51.00 -8.927
52.00 -8.783
53.00 -8.670
54.00 -8.647
55.00 -8.310
56.00 -8.255
57.00 -8.044
58.00 -7.892
59.00 -7.660
60.00 -7.279
61.00 -7.205
62.00 -6.812
63.00 -6.681
64.00 -6.304
65.00 -6.067
66.00 -5.853
67.00 -5.620
68.00 -5.794
69.00 -5.365
70.00 -5.159
71.00 -4.953
72.00 -4.811
73.00 -4.861
74.00 -4.722
75.00 -4.703
76.00 -4.622
77.00 -4.592
78.00 -4.765
79.00 -4.807
80.00 -4.911
81.00 -5.119
82.00 -5.107
83.00 -5.398
84.00 -5.636
85.00 -5.832
86.00 -6.066
87.00 -6.215
88.00 -6.674
89.00 -6.745
90.00 -7.065
91.00 -6.848
92.00 -6.939
93.00 -7.023
94.00 -6.894
95.00 -6.667
96.00 -6.232
97.00 -5.981
98.00 -5.639
99.00 -5.219
100.00 -4.873
101.00 -4.447
102.00 -3.977
103.00 -3.669
104.00 -3.347
105.00 -2.950
106.00 -2.605
107.00 -2.385
108.00 -2.202
109.00 -1.922
110.00 -1.843
111.00 -1.728
112.00 -1.687
113.00 -1.623
114.00 -1.658
115.00 -1.648
116.00 -1.747
117.00 -1.893
118.00 -2.065
119.00 -2.236
120.00 -2.489
121.00 -2.778
122.00 -3.059
123.00 -3.443
124.00 -3.860
125.00 -4.348
126.00 -4.856
127.00 -5.229
128.00 -6.008
129.00 -6.782
130.00 -7.671
131.00 -8.327
132.00 -9.339
133.00 -10.486
134.00 -11.413
135.00 -12.596
136.00 -13.193
137.00 -13.681
138.00 -13.227
139.00 -12.781
140.00 -12.248
141.00 -10.608
142.00 -9.692
143.00 -8.353
144.00 -7.573
145.00 -6.550
146.00 -5.598
147.00 -4.844
148.00 -4.144
149.00 -3.599
150.00 -2.904
151.00 -2.383
152.00 -1.764
153.00 -1.395
154.00 -0.941
155.00 -0.470
156.00 -0.076
157.00 0.219
158.00 0.514
159.00 0.802
160.00 1.091
161.00 1.374
162.00 1.622
163.00 1.814
164.00 2.069
165.00 2.198
166.00 2.412
167.00 2.490
168.00 2.667
169.00 2.817
170.00 2.863
171.00 3.019
172.00 3.033
173.00 3.122
174.00 3.114
175.00 3.190
176.00 3.195
177.00 3.194
178.00 3.225
179.00 3.254
180.00 3.158
