Ant32 Data File V1.0
Date=21/03/2022
Time=09:49:05
Operator=Cyril
Title=irid
Remarks=Freq. = 1,627 GHz
ScanAxis=Theta
StepAxis=Phi : 90 deg
StepPosition=90
StepUnit=deg
FreqValue=1.627000
RecordIncrement=1
XyzImgAxis=0
XyzImgLabel=0
Abscissa=deg
Ordinate=dBi
Data#1
-180.00 2.351
-179.00 2.288
-178.00 2.257
-177.00 2.231
-176.00 2.111
-175.00 2.053
-174.00 1.980
-173.00 1.852
-172.00 1.663
-171.00 1.556
-170.00 1.411
-169.00 1.233
-168.00 1.044
-167.00 0.824
-166.00 0.595
-165.00 0.313
-164.00 0.089
-163.00 -0.294
-162.00 -0.488
-161.00 -0.877
-160.00 -1.237
-159.00 -1.580
-158.00 -2.015
-157.00 -2.430
-156.00 -2.863
-155.00 -3.362
-154.00 -3.942
-153.00 -4.509
-152.00 -5.173
-151.00 -5.819
-150.00 -6.553
-149.00 -7.133
-148.00 -7.990
-147.00 -8.909
-146.00 -9.760
-145.00 -10.742
-144.00 -11.921
-143.00 -12.949
-142.00 -14.302
-141.00 -15.100
-140.00 -15.957
-139.00 -16.970
-138.00 -17.587
-137.00 -17.366
-136.00 -17.574
-135.00 -17.063
-134.00 -17.055
-133.00 -15.900
-132.00 -15.969
-131.00 -15.234
-130.00 -14.237
-129.00 -14.190
-128.00 -13.694
-127.00 -13.856
-126.00 -13.204
-125.00 -13.221
-124.00 -12.968
-123.00 -13.180
-122.00 -12.981
-121.00 -13.197
-120.00 -13.222
-119.00 -13.632
-118.00 -13.098
-117.00 -13.296
-116.00 -13.377
-115.00 -13.781
-114.00 -13.412
-113.00 -13.599
-112.00 -13.573
-111.00 -13.695
-110.00 -13.557
-109.00 -13.726
-108.00 -14.074
-107.00 -13.929
-106.00 -13.978
-105.00 -14.728
-104.00 -14.509
-103.00 -14.244
-102.00 -14.706
-101.00 -14.550
-100.00 -14.627
-99.00 -14.822
-98.00 -14.462
-97.00 -15.025
-96.00 -14.871
-95.00 -14.893
-94.00 -14.742
-93.00 -15.455
-92.00 -15.059
-91.00 -14.898
-90.00 -15.202
-89.00 -14.751
-88.00 -14.574
-87.00 -15.448
-86.00 -15.127
-85.00 -14.933
-84.00 -14.766
-83.00 -15.033
-82.00 -14.577
-81.00 -14.639
-80.00 -14.652
-79.00 -14.184
-78.00 -14.046
-77.00 -13.953
-76.00 -13.983
-75.00 -13.749
-74.00 -13.798
-73.00 -13.818
-72.00 -13.349
-71.00 -13.577
-70.00 -13.783
-69.00 -13.224
-68.00 -13.511
-67.00 -13.232
-66.00 -13.509
-65.00 -13.301
-64.00 -12.869
-63.00 -13.094
-62.00 -12.737
-61.00 -12.678
-60.00 -12.261
-59.00 -12.295
-58.00 -12.211
-57.00 -11.782
-56.00 -11.774
-55.00 -11.183
-54.00 -11.259
-53.00 -10.871
-52.00 -10.915
-51.00 -10.392
-50.00 -10.137
-49.00 -9.838
-48.00 -9.868
-47.00 -9.362
-46.00 -9.100
-45.00 -9.008
-44.00 -8.839
-43.00 -8.524
-42.00 -8.527
-41.00 -8.097
-40.00 -7.924
-39.00 -7.882
-38.00 -7.742
-37.00 -7.597
-36.00 -7.405
-35.00 -7.448
-34.00 -7.299
-33.00 -7.277
-32.00 -7.276
-31.00 -7.079
-30.00 -7.129
-29.00 -7.114
-28.00 -7.127
-27.00 -6.993
-26.00 -7.057
-25.00 -6.933
-24.00 -7.080
-23.00 -7.080
-22.00 -7.153
-21.00 -7.187
-20.00 -7.402
-19.00 -7.283
-18.00 -7.311
-17.00 -7.573
-16.00 -7.351
-15.00 -7.516
-14.00 -7.609
-13.00 -7.592
-12.00 -7.465
-11.00 -7.629
-10.00 -7.644
-9.00 -7.861
-8.00 -7.816
-7.00 -8.158
-6.00 -8.139
-5.00 -8.296
-4.00 -8.420
-3.00 -8.305
-2.00 -8.531
-1.00 -8.413
0.00 -8.556
1.00 -8.706
2.00 -9.086
3.00 -8.992
4.00 -9.080
5.00 -9.128
6.00 -9.144
7.00 -9.270
8.00 -9.491
9.00 -9.639
10.00 -9.269
11.00 -9.773
12.00 -9.756
13.00 -9.799
14.00 -9.812
15.00 -10.022
16.00 -10.043
17.00 -10.363
18.00 -9.822
19.00 -10.325
20.00 -10.107
21.00 -10.178
22.00 -10.113
23.00 -10.203
24.00 -10.028
25.00 -9.837
26.00 -9.849
27.00 -9.971
28.00 -9.809
29.00 -10.021
30.00 -9.786
31.00 -9.888
32.00 -9.624
33.00 -9.651
34.00 -9.562
35.00 -9.413
36.00 -9.518
37.00 -9.472
38.00 -9.492
39.00 -9.372
40.00 -9.227
41.00 -9.343
42.00 -9.273
43.00 -9.199
44.00 -9.228
45.00 -9.081
46.00 -9.040
47.00 -9.428
48.00 -9.368
49.00 -9.365
50.00 -9.322
51.00 -9.407
52.00 -9.636
53.00 -9.576
54.00 -9.670
55.00 -10.116
56.00 -10.137
57.00 -10.199
58.00 -10.652
59.00 -10.937
60.00 -10.996
61.00 -11.252
62.00 -11.629
63.00 -11.794
64.00 -12.408
65.00 -12.794
66.00 -12.912
67.00 -13.488
68.00 -14.174
69.00 -14.878
70.00 -15.143
71.00 -15.695
72.00 -16.328
73.00 -16.590
74.00 -17.096
75.00 -17.873
76.00 -18.803
77.00 -19.194
78.00 -20.390
79.00 -21.106
80.00 -21.917
81.00 -22.937
82.00 -23.692
83.00 -27.020
84.00 -27.635
85.00 -34.581
86.00 -39.681
87.00 -44.454
88.00 -30.947
89.00 -26.771
90.00 -22.485
91.00 -20.617
92.00 -18.165
93.00 -16.941
94.00 -15.679
95.00 -14.138
96.00 -13.241
97.00 -11.915
98.00 -10.879
99.00 -10.404
100.00 -9.394
101.00 -8.999
102.00 -8.136
103.00 -7.860
104.00 -7.459
105.00 -7.087
106.00 -6.605
107.00 -6.482
108.00 -6.285
109.00 -5.969
110.00 -5.909
111.00 -6.041
112.00 -5.933
113.00 -6.010
114.00 -6.300
115.00 -6.379
116.00 -6.741
117.00 -6.857
118.00 -7.275
119.00 -7.441
120.00 -8.116
121.00 -8.714
122.00 -9.344
123.00 -9.889
124.00 -10.706
125.00 -11.646
126.00 -12.579
127.00 -13.486
128.00 -14.508
129.00 -16.334
130.00 -16.874
131.00 -18.575
132.00 -18.198
133.00 -18.990
134.00 -17.719
135.00 -15.997
136.00 -15.160
137.00 -13.128
138.00 -12.030
139.00 -11.083
140.00 -9.732
141.00 -9.012
142.00 -8.074
143.00 -7.363
144.00 -6.558
145.00 -5.940
146.00 -5.388
147.00 -4.745
148.00 -4.191
149.00 -3.651
150.00 -3.259
151.00 -2.817
152.00 -2.390
153.00 -1.996
154.00 -1.644
155.00 -1.213
156.00 -0.918
157.00 -0.591
158.00 -0.333
159.00 0.065
160.00 0.286
161.00 0.499
162.00 0.684
163.00 0.934
164.00 1.104
165.00 1.322
166.00 1.527
167.00 1.694
168.00 1.783
169.00 1.872
170.00 2.019
171.00 2.146
172.00 2.197
173.00 2.287
174.00 2.294
175.00 2.329
176.00 2.336
177.00 2.382
178.00 2.343
179.00 2.344
180.00 2.351
