Ant32 Data File V1.0
Date=21/03/2022
Time=09:49:05
Operator=Cyril
Title=irid
Remarks=Freq. = 1,629 GHz
ScanAxis=Theta
StepAxis=Phi : 90 deg
StepPosition=90
StepUnit=deg
FreqValue=1.629000
RecordIncrement=1
XyzImgAxis=0
XyzImgLabel=0
Abscissa=deg
Ordinate=dBi
Data#1
-180.00 1.724
-179.00 1.699
-178.00 1.703
-177.00 1.605
-176.00 1.571
-175.00 1.420
-174.00 1.300
-173.00 1.289
-172.00 1.074
-171.00 0.951
-170.00 0.757
-169.00 0.612
-168.00 0.492
-167.00 0.229
-166.00 0.055
-165.00 -0.246
-164.00 -0.459
-163.00 -0.850
-162.00 -1.093
-161.00 -1.415
-160.00 -1.791
-159.00 -2.166
-158.00 -2.644
-157.00 -3.056
-156.00 -3.465
-155.00 -3.881
-154.00 -4.483
-153.00 -5.153
-152.00 -5.722
-151.00 -6.450
-150.00 -6.883
-149.00 -7.862
-148.00 -8.621
-147.00 -9.573
-146.00 -10.262
-145.00 -11.509
-144.00 -12.400
-143.00 -13.798
-142.00 -14.748
-141.00 -16.186
-140.00 -17.111
-139.00 -18.833
-138.00 -19.251
-137.00 -19.545
-136.00 -20.043
-135.00 -19.127
-134.00 -18.411
-133.00 -18.143
-132.00 -18.041
-131.00 -17.031
-130.00 -16.443
-129.00 -16.196
-128.00 -15.671
-127.00 -15.115
-126.00 -15.039
-125.00 -14.983
-124.00 -14.545
-123.00 -14.592
-122.00 -14.424
-121.00 -14.545
-120.00 -14.655
-119.00 -14.331
-118.00 -14.107
-117.00 -14.201
-116.00 -14.475
-115.00 -14.537
-114.00 -14.776
-113.00 -14.846
-112.00 -14.838
-111.00 -14.426
-110.00 -15.026
-109.00 -15.077
-108.00 -15.610
-107.00 -15.301
-106.00 -15.966
-105.00 -15.997
-104.00 -16.054
-103.00 -15.707
-102.00 -16.466
-101.00 -16.119
-100.00 -16.841
-99.00 -16.817
-98.00 -17.178
-97.00 -17.165
-96.00 -17.789
-95.00 -17.237
-94.00 -17.526
-93.00 -17.265
-92.00 -17.604
-91.00 -17.759
-90.00 -17.226
-89.00 -17.394
-88.00 -16.784
-87.00 -17.201
-86.00 -16.773
-85.00 -16.665
-84.00 -16.229
-83.00 -16.112
-82.00 -15.711
-81.00 -15.696
-80.00 -15.276
-79.00 -15.822
-78.00 -14.926
-77.00 -14.495
-76.00 -14.519
-75.00 -14.372
-74.00 -13.959
-73.00 -13.609
-72.00 -13.772
-71.00 -13.787
-70.00 -13.190
-69.00 -13.392
-68.00 -12.931
-67.00 -12.797
-66.00 -12.917
-65.00 -12.333
-64.00 -12.389
-63.00 -12.018
-62.00 -11.985
-61.00 -11.750
-60.00 -11.553
-59.00 -11.372
-58.00 -10.952
-57.00 -11.312
-56.00 -11.010
-55.00 -10.761
-54.00 -10.255
-53.00 -10.243
-52.00 -10.119
-51.00 -9.964
-50.00 -9.767
-49.00 -9.675
-48.00 -9.077
-47.00 -8.973
-46.00 -8.727
-45.00 -8.449
-44.00 -8.328
-43.00 -8.116
-42.00 -8.080
-41.00 -7.894
-40.00 -7.589
-39.00 -7.689
-38.00 -7.359
-37.00 -7.202
-36.00 -7.054
-35.00 -7.051
-34.00 -6.827
-33.00 -6.799
-32.00 -6.852
-31.00 -6.850
-30.00 -6.892
-29.00 -6.785
-28.00 -6.713
-27.00 -6.843
-26.00 -6.783
-25.00 -6.752
-24.00 -6.937
-23.00 -6.824
-22.00 -6.924
-21.00 -6.919
-20.00 -7.035
-19.00 -7.044
-18.00 -6.930
-17.00 -7.080
-16.00 -7.059
-15.00 -7.259
-14.00 -7.220
-13.00 -7.298
-12.00 -7.247
-11.00 -7.492
-10.00 -7.402
-9.00 -7.313
-8.00 -7.561
-7.00 -7.499
-6.00 -7.722
-5.00 -7.700
-4.00 -7.865
-3.00 -7.886
-2.00 -7.864
-1.00 -8.094
0.00 -8.165
1.00 -8.202
2.00 -8.174
3.00 -8.300
4.00 -8.328
5.00 -8.633
6.00 -8.539
7.00 -8.706
8.00 -8.688
9.00 -8.629
10.00 -8.715
11.00 -8.671
12.00 -8.960
13.00 -8.972
14.00 -8.941
15.00 -9.269
16.00 -9.125
17.00 -9.172
18.00 -9.249
19.00 -9.274
20.00 -9.210
21.00 -9.143
22.00 -8.960
23.00 -9.292
24.00 -9.016
25.00 -8.869
26.00 -8.821
27.00 -8.780
28.00 -8.752
29.00 -8.545
30.00 -8.625
31.00 -8.387
32.00 -8.370
33.00 -8.224
34.00 -8.149
35.00 -8.145
36.00 -8.258
37.00 -8.183
38.00 -8.112
39.00 -8.255
40.00 -8.085
41.00 -8.073
42.00 -7.996
43.00 -8.193
44.00 -8.193
45.00 -8.238
46.00 -8.310
47.00 -8.104
48.00 -8.407
49.00 -8.395
50.00 -8.640
51.00 -8.770
52.00 -8.672
53.00 -8.890
54.00 -9.173
55.00 -9.197
56.00 -9.652
57.00 -10.068
58.00 -10.063
59.00 -10.532
60.00 -10.792
61.00 -11.229
62.00 -12.003
63.00 -12.219
64.00 -12.846
65.00 -13.602
66.00 -14.509
67.00 -15.501
68.00 -16.555
69.00 -17.044
70.00 -18.240
71.00 -19.749
72.00 -20.971
73.00 -22.788
74.00 -23.170
75.00 -25.582
76.00 -26.539
77.00 -27.888
78.00 -28.740
79.00 -27.102
80.00 -24.968
81.00 -24.763
82.00 -25.006
83.00 -22.331
84.00 -23.534
85.00 -23.552
86.00 -23.607
87.00 -23.692
88.00 -22.364
89.00 -23.027
90.00 -23.150
91.00 -21.700
92.00 -21.213
93.00 -19.179
94.00 -18.334
95.00 -17.283
96.00 -15.202
97.00 -14.049
98.00 -13.096
99.00 -12.374
100.00 -11.204
101.00 -10.629
102.00 -9.918
103.00 -9.308
104.00 -8.767
105.00 -8.432
106.00 -8.095
107.00 -7.872
108.00 -7.427
109.00 -7.390
110.00 -7.017
111.00 -7.162
112.00 -7.113
113.00 -7.247
114.00 -7.526
115.00 -7.604
116.00 -7.766
117.00 -8.032
118.00 -8.366
119.00 -8.923
120.00 -9.323
121.00 -10.195
122.00 -10.700
123.00 -11.344
124.00 -12.074
125.00 -13.164
126.00 -14.562
127.00 -15.724
128.00 -17.028
129.00 -19.516
130.00 -20.766
131.00 -23.743
132.00 -23.189
133.00 -21.983
134.00 -20.065
135.00 -18.025
136.00 -16.057
137.00 -14.194
138.00 -13.076
139.00 -11.813
140.00 -10.642
141.00 -9.771
142.00 -8.713
143.00 -8.111
144.00 -7.408
145.00 -6.656
146.00 -5.903
147.00 -5.430
148.00 -4.798
149.00 -4.366
150.00 -3.973
151.00 -3.481
152.00 -3.191
153.00 -2.615
154.00 -2.227
155.00 -1.893
156.00 -1.515
157.00 -1.280
158.00 -0.972
159.00 -0.669
160.00 -0.433
161.00 -0.183
162.00 0.178
163.00 0.345
164.00 0.479
165.00 0.642
166.00 0.770
167.00 1.032
168.00 1.110
169.00 1.304
170.00 1.384
171.00 1.425
172.00 1.571
173.00 1.631
174.00 1.652
175.00 1.698
176.00 1.699
177.00 1.804
178.00 1.723
179.00 1.762
180.00 1.718
