Ant32 Data File V1.0
Date=21/03/2022
Time=09:45:38
Operator=Cyril
Title=irid
Remarks=Freq. = 1,614 GHz
ScanAxis=Theta
StepAxis=Phi : 0 deg
StepPosition=0
StepUnit=deg
FreqValue=1.614000
RecordIncrement=1
XyzImgAxis=0
XyzImgLabel=0
Abscissa=deg
Ordinate=dBi
Data#1
-180.00 2.719
-179.00 2.690
-178.00 2.672
-177.00 2.591
-176.00 2.532
-175.00 2.392
-174.00 2.321
-173.00 2.140
-172.00 2.049
-171.00 1.944
-170.00 1.716
-169.00 1.592
-168.00 1.375
-167.00 1.209
-166.00 0.956
-165.00 0.715
-164.00 0.505
-163.00 0.236
-162.00 0.069
-161.00 -0.209
-160.00 -0.636
-159.00 -0.833
-158.00 -1.201
-157.00 -1.559
-156.00 -1.841
-155.00 -2.226
-154.00 -2.654
-153.00 -3.012
-152.00 -3.352
-151.00 -3.779
-150.00 -4.257
-149.00 -4.457
-148.00 -4.960
-147.00 -5.241
-146.00 -5.737
-145.00 -6.112
-144.00 -6.266
-143.00 -6.675
-142.00 -6.928
-141.00 -6.964
-140.00 -7.448
-139.00 -7.469
-138.00 -7.741
-137.00 -7.955
-136.00 -7.903
-135.00 -8.180
-134.00 -8.405
-133.00 -8.538
-132.00 -8.446
-131.00 -8.747
-130.00 -8.870
-129.00 -9.046
-128.00 -9.344
-127.00 -9.879
-126.00 -10.016
-125.00 -10.254
-124.00 -10.839
-123.00 -11.132
-122.00 -11.775
-121.00 -12.593
-120.00 -13.117
-119.00 -13.725
-118.00 -14.389
-117.00 -15.304
-116.00 -15.716
-115.00 -16.412
-114.00 -17.918
-113.00 -18.679
-112.00 -19.209
-111.00 -19.988
-110.00 -20.246
-109.00 -20.654
-108.00 -19.850
-107.00 -19.709
-106.00 -19.394
-105.00 -18.107
-104.00 -17.931
-103.00 -16.836
-102.00 -16.895
-101.00 -16.350
-100.00 -15.517
-99.00 -15.204
-98.00 -15.278
-97.00 -15.068
-96.00 -14.750
-95.00 -14.003
-94.00 -14.098
-93.00 -14.137
-92.00 -14.151
-91.00 -13.696
-90.00 -13.750
-89.00 -13.492
-88.00 -13.192
-87.00 -13.273
-86.00 -13.015
-85.00 -12.740
-84.00 -12.805
-83.00 -12.954
-82.00 -12.573
-81.00 -12.683
-80.00 -12.479
-79.00 -12.603
-78.00 -12.716
-77.00 -12.655
-76.00 -12.896
-75.00 -13.175
-74.00 -12.644
-73.00 -12.944
-72.00 -13.494
-71.00 -13.745
-70.00 -14.376
-69.00 -14.598
-68.00 -15.070
-67.00 -15.470
-66.00 -16.363
-65.00 -17.156
-64.00 -17.590
-63.00 -19.149
-62.00 -19.468
-61.00 -20.437
-60.00 -21.357
-59.00 -22.208
-58.00 -22.533
-57.00 -21.418
-56.00 -19.677
-55.00 -19.184
-54.00 -18.005
-53.00 -16.500
-52.00 -15.455
-51.00 -14.575
-50.00 -13.975
-49.00 -12.940
-48.00 -12.273
-47.00 -11.770
-46.00 -11.082
-45.00 -10.548
-44.00 -10.149
-43.00 -9.498
-42.00 -9.293
-41.00 -9.039
-40.00 -8.607
-39.00 -8.326
-38.00 -8.054
-37.00 -7.644
-36.00 -7.610
-35.00 -7.386
-34.00 -7.204
-33.00 -6.950
-32.00 -6.655
-31.00 -6.763
-30.00 -6.621
-29.00 -6.660
-28.00 -6.676
-27.00 -6.387
-26.00 -6.522
-25.00 -6.493
-24.00 -6.438
-23.00 -6.414
-22.00 -6.450
-21.00 -6.426
-20.00 -6.462
-19.00 -6.503
-18.00 -6.592
-17.00 -6.729
-16.00 -6.804
-15.00 -6.663
-14.00 -6.857
-13.00 -6.884
-12.00 -6.967
-11.00 -7.112
-10.00 -7.194
-9.00 -7.265
-8.00 -7.333
-7.00 -7.301
-6.00 -7.344
-5.00 -7.479
-4.00 -7.558
-3.00 -7.521
-2.00 -7.680
-1.00 -7.518
0.00 -7.666
1.00 -7.624
2.00 -7.859
3.00 -7.780
4.00 -7.540
5.00 -7.721
6.00 -7.939
7.00 -8.020
8.00 -7.976
9.00 -7.798
10.00 -7.975
11.00 -8.038
12.00 -7.882
13.00 -8.106
14.00 -8.159
15.00 -8.096
16.00 -7.927
17.00 -8.120
18.00 -8.158
19.00 -8.006
20.00 -7.982
21.00 -8.131
22.00 -8.003
23.00 -8.048
24.00 -7.915
25.00 -7.969
26.00 -8.089
27.00 -8.021
28.00 -7.909
29.00 -8.027
30.00 -7.931
31.00 -8.063
32.00 -7.782
33.00 -7.905
34.00 -8.037
35.00 -7.974
36.00 -8.004
37.00 -7.977
38.00 -8.146
39.00 -8.094
40.00 -8.118
41.00 -8.088
42.00 -8.056
43.00 -8.082
44.00 -8.050
45.00 -7.976
46.00 -8.040
47.00 -7.987
48.00 -7.842
49.00 -7.913
50.00 -7.655
51.00 -7.653
52.00 -7.707
53.00 -7.612
54.00 -7.532
55.00 -7.337
56.00 -7.439
57.00 -7.142
58.00 -7.176
59.00 -7.129
60.00 -6.972
61.00 -6.868
62.00 -6.972
63.00 -6.673
64.00 -6.656
65.00 -6.822
66.00 -6.752
67.00 -6.629
68.00 -6.565
69.00 -6.517
70.00 -6.601
71.00 -6.512
72.00 -6.648
73.00 -6.514
74.00 -6.495
75.00 -6.580
76.00 -6.560
77.00 -6.710
78.00 -6.788
79.00 -6.901
80.00 -6.886
81.00 -7.029
82.00 -6.931
83.00 -7.154
84.00 -7.061
85.00 -7.179
86.00 -7.217
87.00 -7.125
88.00 -7.309
89.00 -7.063
90.00 -7.038
91.00 -6.675
92.00 -6.698
93.00 -6.577
94.00 -6.410
95.00 -6.171
96.00 -5.989
97.00 -5.809
98.00 -5.611
99.00 -5.249
100.00 -5.117
101.00 -4.977
102.00 -4.815
103.00 -4.458
104.00 -4.122
105.00 -4.134
106.00 -3.686
107.00 -3.653
108.00 -3.542
109.00 -3.347
110.00 -3.259
111.00 -3.134
112.00 -2.990
113.00 -3.012
114.00 -2.854
115.00 -2.879
116.00 -2.855
117.00 -2.837
118.00 -2.841
119.00 -2.860
120.00 -2.946
121.00 -3.117
122.00 -3.307
123.00 -3.313
124.00 -3.556
125.00 -3.802
126.00 -3.999
127.00 -4.271
128.00 -4.456
129.00 -4.835
130.00 -5.146
131.00 -5.583
132.00 -6.028
133.00 -6.365
134.00 -6.851
135.00 -7.095
136.00 -7.450
137.00 -7.445
138.00 -7.657
139.00 -7.713
140.00 -7.626
141.00 -7.413
142.00 -6.822
143.00 -6.558
144.00 -6.001
145.00 -5.393
146.00 -4.885
147.00 -4.332
148.00 -3.712
149.00 -3.208
150.00 -2.717
151.00 -2.232
152.00 -1.782
153.00 -1.381
154.00 -0.983
155.00 -0.533
156.00 -0.198
157.00 0.136
158.00 0.447
159.00 0.647
160.00 1.017
161.00 1.173
162.00 1.447
163.00 1.694
164.00 1.833
165.00 1.925
166.00 2.106
167.00 2.254
168.00 2.368
169.00 2.487
170.00 2.591
171.00 2.595
172.00 2.687
173.00 2.782
174.00 2.790
175.00 2.843
176.00 2.860
177.00 2.846
178.00 2.835
179.00 2.788
180.00 2.791
