Ant32 Data File V1.0
Date=21/03/2022
Time=09:49:05
Operator=Cyril
Title=irid
Remarks=Freq. = 1,619 GHz
ScanAxis=Theta
StepAxis=Phi : 90 deg
StepPosition=90
StepUnit=deg
FreqValue=1.619000
RecordIncrement=1
XyzImgAxis=0
XyzImgLabel=0
Abscissa=deg
Ordinate=dBi
Data#1
-180.00 3.483
-179.00 3.467
-178.00 3.449
-177.00 3.366
-176.00 3.316
-175.00 3.171
-174.00 3.058
-173.00 2.964
-172.00 2.840
-171.00 2.615
-170.00 2.480
-169.00 2.344
-168.00 2.106
-167.00 1.877
-166.00 1.706
-165.00 1.422
-164.00 1.101
-163.00 0.834
-162.00 0.513
-161.00 0.199
-160.00 -0.183
-159.00 -0.589
-158.00 -0.888
-157.00 -1.415
-156.00 -1.902
-155.00 -2.558
-154.00 -2.950
-153.00 -3.602
-152.00 -4.245
-151.00 -4.868
-150.00 -5.772
-149.00 -6.414
-148.00 -7.406
-147.00 -8.323
-146.00 -9.304
-145.00 -10.332
-144.00 -11.152
-143.00 -12.038
-142.00 -12.777
-141.00 -13.658
-140.00 -14.027
-139.00 -13.869
-138.00 -13.787
-137.00 -13.404
-136.00 -13.084
-135.00 -11.885
-134.00 -11.268
-133.00 -10.954
-132.00 -10.502
-131.00 -9.880
-130.00 -9.462
-129.00 -9.253
-128.00 -9.016
-127.00 -8.693
-126.00 -8.865
-125.00 -8.640
-124.00 -8.803
-123.00 -8.408
-122.00 -8.625
-121.00 -8.432
-120.00 -8.618
-119.00 -8.895
-118.00 -9.006
-117.00 -9.256
-116.00 -9.419
-115.00 -9.422
-114.00 -9.728
-113.00 -9.964
-112.00 -9.903
-111.00 -10.111
-110.00 -10.232
-109.00 -10.580
-108.00 -10.635
-107.00 -10.596
-106.00 -10.461
-105.00 -10.379
-104.00 -10.433
-103.00 -10.101
-102.00 -10.086
-101.00 -9.914
-100.00 -9.869
-99.00 -9.484
-98.00 -9.360
-97.00 -9.025
-96.00 -9.164
-95.00 -9.045
-94.00 -9.033
-93.00 -9.078
-92.00 -8.869
-91.00 -8.914
-90.00 -9.034
-89.00 -8.997
-88.00 -8.966
-87.00 -9.154
-86.00 -9.211
-85.00 -9.188
-84.00 -9.641
-83.00 -9.655
-82.00 -9.978
-81.00 -10.235
-80.00 -10.980
-79.00 -10.875
-78.00 -11.246
-77.00 -11.781
-76.00 -12.203
-75.00 -12.723
-74.00 -13.363
-73.00 -13.643
-72.00 -14.247
-71.00 -14.913
-70.00 -15.204
-69.00 -15.501
-68.00 -15.800
-67.00 -16.215
-66.00 -16.262
-65.00 -16.766
-64.00 -15.539
-63.00 -15.855
-62.00 -16.036
-61.00 -15.597
-60.00 -15.283
-59.00 -14.719
-58.00 -14.416
-57.00 -14.316
-56.00 -14.167
-55.00 -13.805
-54.00 -13.508
-53.00 -13.252
-52.00 -13.308
-51.00 -12.486
-50.00 -12.362
-49.00 -12.511
-48.00 -12.030
-47.00 -11.892
-46.00 -11.927
-45.00 -11.942
-44.00 -11.730
-43.00 -11.493
-42.00 -11.598
-41.00 -11.254
-40.00 -11.676
-39.00 -11.798
-38.00 -11.700
-37.00 -11.589
-36.00 -11.722
-35.00 -11.756
-34.00 -11.465
-33.00 -12.031
-32.00 -12.028
-31.00 -12.200
-30.00 -11.889
-29.00 -12.599
-28.00 -12.295
-27.00 -12.369
-26.00 -12.665
-25.00 -12.706
-24.00 -13.050
-23.00 -12.950
-22.00 -13.138
-21.00 -13.388
-20.00 -13.223
-19.00 -13.392
-18.00 -13.279
-17.00 -13.373
-16.00 -13.382
-15.00 -13.284
-14.00 -13.269
-13.00 -13.139
-12.00 -13.507
-11.00 -13.724
-10.00 -13.525
-9.00 -13.564
-8.00 -13.879
-7.00 -13.593
-6.00 -13.372
-5.00 -13.451
-4.00 -13.324
-3.00 -13.484
-2.00 -13.599
-1.00 -13.103
0.00 -13.388
1.00 -13.630
2.00 -13.388
3.00 -13.398
4.00 -12.975
5.00 -13.472
6.00 -13.467
7.00 -13.061
8.00 -13.429
9.00 -13.646
10.00 -13.720
11.00 -13.546
12.00 -13.110
13.00 -13.488
14.00 -13.577
15.00 -13.208
16.00 -13.793
17.00 -13.685
18.00 -13.687
19.00 -13.740
20.00 -13.440
21.00 -13.971
22.00 -14.124
23.00 -13.767
24.00 -13.676
25.00 -14.080
26.00 -13.818
27.00 -13.418
28.00 -13.633
29.00 -13.417
30.00 -13.802
31.00 -13.700
32.00 -13.790
33.00 -13.682
34.00 -13.610
35.00 -13.280
36.00 -13.322
37.00 -13.496
38.00 -14.055
39.00 -13.348
40.00 -13.294
41.00 -13.587
42.00 -13.205
43.00 -13.230
44.00 -13.048
45.00 -12.985
46.00 -12.460
47.00 -12.843
48.00 -12.048
49.00 -11.908
50.00 -11.685
51.00 -11.215
52.00 -10.987
53.00 -11.277
54.00 -10.338
55.00 -10.052
56.00 -9.995
57.00 -9.574
58.00 -9.088
59.00 -8.873
60.00 -8.503
61.00 -8.197
62.00 -8.140
63.00 -7.668
64.00 -7.394
65.00 -7.047
66.00 -6.942
67.00 -6.818
68.00 -6.586
69.00 -6.283
70.00 -6.319
71.00 -6.087
72.00 -6.131
73.00 -6.048
74.00 -6.134
75.00 -6.124
76.00 -6.141
77.00 -6.080
78.00 -6.387
79.00 -6.309
80.00 -6.555
81.00 -6.753
82.00 -6.932
83.00 -7.153
84.00 -7.623
85.00 -7.850
86.00 -8.066
87.00 -8.419
88.00 -8.717
89.00 -8.779
90.00 -8.699
91.00 -8.597
92.00 -8.406
93.00 -8.205
94.00 -7.778
95.00 -7.391
96.00 -6.894
97.00 -6.453
98.00 -6.013
99.00 -5.430
100.00 -5.082
101.00 -4.628
102.00 -4.204
103.00 -3.718
104.00 -3.394
105.00 -3.191
106.00 -2.844
107.00 -2.596
108.00 -2.476
109.00 -2.287
110.00 -2.150
111.00 -2.050
112.00 -1.940
113.00 -1.902
114.00 -2.060
115.00 -2.110
116.00 -2.234
117.00 -2.452
118.00 -2.674
119.00 -2.857
120.00 -3.016
121.00 -3.490
122.00 -3.808
123.00 -4.222
124.00 -4.626
125.00 -5.101
126.00 -5.516
127.00 -6.257
128.00 -6.833
129.00 -7.682
130.00 -8.420
131.00 -9.234
132.00 -10.138
133.00 -10.936
134.00 -12.054
135.00 -12.795
136.00 -12.737
137.00 -12.664
138.00 -11.869
139.00 -11.096
140.00 -10.194
141.00 -9.216
142.00 -8.302
143.00 -7.293
144.00 -6.565
145.00 -5.542
146.00 -4.730
147.00 -4.175
148.00 -3.489
149.00 -2.807
150.00 -2.423
151.00 -1.873
152.00 -1.335
153.00 -0.845
154.00 -0.465
155.00 -0.064
156.00 0.284
157.00 0.582
158.00 0.942
159.00 1.284
160.00 1.548
161.00 1.834
162.00 2.012
163.00 2.203
164.00 2.394
165.00 2.582
166.00 2.785
167.00 2.878
168.00 3.064
169.00 3.103
170.00 3.234
171.00 3.310
172.00 3.433
173.00 3.469
174.00 3.485
175.00 3.535
176.00 3.536
177.00 3.561
178.00 3.545
179.00 3.549
180.00 3.508
