Ant32 Data File V1.0
Date=21/03/2022
Time=09:49:05
Operator=Cyril
Title=irid
Remarks=Freq. = 1,625 GHz
ScanAxis=Theta
StepAxis=Phi : 90 deg
StepPosition=90
StepUnit=deg
FreqValue=1.625000
RecordIncrement=1
XyzImgAxis=0
XyzImgLabel=0
Abscissa=deg
Ordinate=dBi
Data#1
-180.00 2.821
-179.00 2.764
-178.00 2.725
-177.00 2.690
-176.00 2.592
-175.00 2.539
-174.00 2.432
-173.00 2.354
-172.00 2.184
-171.00 2.044
-170.00 1.867
-169.00 1.741
-168.00 1.541
-167.00 1.352
-166.00 1.054
-165.00 0.781
-164.00 0.522
-163.00 0.213
-162.00 -0.066
-161.00 -0.395
-160.00 -0.759
-159.00 -1.192
-158.00 -1.623
-157.00 -2.033
-156.00 -2.424
-155.00 -2.938
-154.00 -3.466
-153.00 -4.050
-152.00 -4.539
-151.00 -5.316
-150.00 -6.058
-149.00 -6.721
-148.00 -7.634
-147.00 -8.414
-146.00 -9.316
-145.00 -10.335
-144.00 -11.452
-143.00 -12.520
-142.00 -13.506
-141.00 -14.162
-140.00 -15.246
-139.00 -15.897
-138.00 -16.508
-137.00 -15.742
-136.00 -15.779
-135.00 -15.744
-134.00 -14.729
-133.00 -14.331
-132.00 -13.756
-131.00 -13.249
-130.00 -12.952
-129.00 -12.545
-128.00 -12.620
-127.00 -12.336
-126.00 -12.004
-125.00 -11.861
-124.00 -11.649
-123.00 -11.452
-122.00 -11.765
-121.00 -11.661
-120.00 -11.665
-119.00 -11.775
-118.00 -11.620
-117.00 -12.148
-116.00 -12.157
-115.00 -12.080
-114.00 -12.207
-113.00 -12.340
-112.00 -12.465
-111.00 -12.292
-110.00 -12.541
-109.00 -12.899
-108.00 -12.903
-107.00 -12.792
-106.00 -12.527
-105.00 -13.124
-104.00 -12.449
-103.00 -13.102
-102.00 -12.909
-101.00 -12.683
-100.00 -12.713
-99.00 -12.714
-98.00 -12.996
-97.00 -12.822
-96.00 -13.125
-95.00 -13.014
-94.00 -12.585
-93.00 -12.820
-92.00 -13.086
-91.00 -13.020
-90.00 -13.120
-89.00 -12.915
-88.00 -13.105
-87.00 -12.819
-86.00 -12.710
-85.00 -13.288
-84.00 -13.108
-83.00 -13.367
-82.00 -13.230
-81.00 -13.387
-80.00 -13.743
-79.00 -13.377
-78.00 -13.591
-77.00 -13.587
-76.00 -13.914
-75.00 -13.943
-74.00 -13.637
-73.00 -13.830
-72.00 -14.102
-71.00 -14.232
-70.00 -14.046
-69.00 -13.910
-68.00 -14.355
-67.00 -14.357
-66.00 -14.715
-65.00 -14.173
-64.00 -14.418
-63.00 -14.239
-62.00 -13.976
-61.00 -14.057
-60.00 -13.838
-59.00 -13.906
-58.00 -13.548
-57.00 -13.373
-56.00 -12.994
-55.00 -13.051
-54.00 -12.872
-53.00 -12.406
-52.00 -11.904
-51.00 -11.517
-50.00 -11.444
-49.00 -10.987
-48.00 -10.868
-47.00 -10.634
-46.00 -10.113
-45.00 -9.921
-44.00 -9.965
-43.00 -9.373
-42.00 -9.329
-41.00 -8.944
-40.00 -8.680
-39.00 -8.601
-38.00 -8.688
-37.00 -8.517
-36.00 -8.287
-35.00 -8.130
-34.00 -8.031
-33.00 -7.992
-32.00 -7.984
-31.00 -7.781
-30.00 -7.832
-29.00 -7.814
-28.00 -7.961
-27.00 -7.698
-26.00 -7.908
-25.00 -8.010
-24.00 -7.941
-23.00 -7.894
-22.00 -7.754
-21.00 -8.069
-20.00 -8.084
-19.00 -8.074
-18.00 -8.114
-17.00 -8.372
-16.00 -8.261
-15.00 -8.578
-14.00 -8.275
-13.00 -8.536
-12.00 -8.453
-11.00 -8.576
-10.00 -8.760
-9.00 -8.870
-8.00 -8.729
-7.00 -8.899
-6.00 -9.134
-5.00 -9.152
-4.00 -9.174
-3.00 -9.304
-2.00 -9.176
-1.00 -9.578
0.00 -9.661
1.00 -9.507
2.00 -9.863
3.00 -10.034
4.00 -10.116
5.00 -10.173
6.00 -10.227
7.00 -10.348
8.00 -10.696
9.00 -10.717
10.00 -10.735
11.00 -10.885
12.00 -10.926
13.00 -11.135
14.00 -11.339
15.00 -11.603
16.00 -11.393
17.00 -12.011
18.00 -11.888
19.00 -12.023
20.00 -11.992
21.00 -12.124
22.00 -12.339
23.00 -12.195
24.00 -12.256
25.00 -12.034
26.00 -12.033
27.00 -11.986
28.00 -12.236
29.00 -11.812
30.00 -11.809
31.00 -12.204
32.00 -12.126
33.00 -11.620
34.00 -11.652
35.00 -11.439
36.00 -11.810
37.00 -11.464
38.00 -11.727
39.00 -11.507
40.00 -11.339
41.00 -11.165
42.00 -11.316
43.00 -11.050
44.00 -11.137
45.00 -11.138
46.00 -11.172
47.00 -10.923
48.00 -10.882
49.00 -10.697
50.00 -10.947
51.00 -10.633
52.00 -10.874
53.00 -10.723
54.00 -10.768
55.00 -10.816
56.00 -10.604
57.00 -10.763
58.00 -10.668
59.00 -11.071
60.00 -10.717
61.00 -10.995
62.00 -10.916
63.00 -11.124
64.00 -11.170
65.00 -11.595
66.00 -11.548
67.00 -11.784
68.00 -11.791
69.00 -11.920
70.00 -12.152
71.00 -12.668
72.00 -12.787
73.00 -12.715
74.00 -13.344
75.00 -13.436
76.00 -13.970
77.00 -14.372
78.00 -14.760
79.00 -15.171
80.00 -15.568
81.00 -17.108
82.00 -17.356
83.00 -18.760
84.00 -19.324
85.00 -20.014
86.00 -21.641
87.00 -20.804
88.00 -21.130
89.00 -20.130
90.00 -18.662
91.00 -16.933
92.00 -15.591
93.00 -14.339
94.00 -13.350
95.00 -11.951
96.00 -11.330
97.00 -10.263
98.00 -9.507
99.00 -8.516
100.00 -8.055
101.00 -7.355
102.00 -6.771
103.00 -6.428
104.00 -5.986
105.00 -5.670
106.00 -5.478
107.00 -5.286
108.00 -4.857
109.00 -4.838
110.00 -4.927
111.00 -4.808
112.00 -4.812
113.00 -4.862
114.00 -4.856
115.00 -5.068
116.00 -5.358
117.00 -5.663
118.00 -5.991
119.00 -6.275
120.00 -6.891
121.00 -7.048
122.00 -7.723
123.00 -8.270
124.00 -8.826
125.00 -9.503
126.00 -10.444
127.00 -11.143
128.00 -12.226
129.00 -13.345
130.00 -13.911
131.00 -15.016
132.00 -15.683
133.00 -15.862
134.00 -15.394
135.00 -14.718
136.00 -13.860
137.00 -12.581
138.00 -11.792
139.00 -10.931
140.00 -9.667
141.00 -8.519
142.00 -8.020
143.00 -7.023
144.00 -6.168
145.00 -5.662
146.00 -4.863
147.00 -4.314
148.00 -3.653
149.00 -3.225
150.00 -2.752
151.00 -2.195
152.00 -1.730
153.00 -1.482
154.00 -1.055
155.00 -0.633
156.00 -0.362
157.00 0.022
158.00 0.266
159.00 0.549
160.00 0.799
161.00 1.040
162.00 1.317
163.00 1.456
164.00 1.677
165.00 1.949
166.00 1.964
167.00 2.184
168.00 2.320
169.00 2.373
170.00 2.475
171.00 2.591
172.00 2.701
173.00 2.748
174.00 2.781
175.00 2.850
176.00 2.821
177.00 2.851
178.00 2.853
179.00 2.835
180.00 2.818
