Ant32 Data File V1.0
Date=21/03/2022
Time=09:45:38
Operator=Cyril
Title=irid
Remarks=Freq. = 1,629 GHz
ScanAxis=Theta
StepAxis=Phi : 0 deg
StepPosition=0
StepUnit=deg
FreqValue=1.629000
RecordIncrement=1
XyzImgAxis=0
XyzImgLabel=0
Abscissa=deg
Ordinate=dBi
Data#1
-180.00 1.892
-179.00 1.819
-178.00 1.799
-177.00 1.661
-176.00 1.630
-175.00 1.486
-174.00 1.339
-173.00 1.288
-172.00 1.071
-171.00 0.984
-170.00 0.817
-169.00 0.573
-168.00 0.442
-167.00 0.119
-166.00 -0.135
-165.00 -0.374
-164.00 -0.689
-163.00 -0.941
-162.00 -1.266
-161.00 -1.680
-160.00 -1.963
-159.00 -2.382
-158.00 -2.771
-157.00 -3.274
-156.00 -3.694
-155.00 -4.251
-154.00 -4.577
-153.00 -5.125
-152.00 -5.719
-151.00 -6.320
-150.00 -6.979
-149.00 -7.424
-148.00 -7.853
-147.00 -8.532
-146.00 -9.242
-145.00 -9.431
-144.00 -9.851
-143.00 -10.245
-142.00 -10.450
-141.00 -10.046
-140.00 -10.218
-139.00 -10.174
-138.00 -9.944
-137.00 -9.739
-136.00 -9.485
-135.00 -9.018
-134.00 -8.703
-133.00 -8.596
-132.00 -8.292
-131.00 -8.272
-130.00 -8.164
-129.00 -7.964
-128.00 -7.886
-127.00 -7.988
-126.00 -7.872
-125.00 -7.934
-124.00 -7.981
-123.00 -8.031
-122.00 -8.282
-121.00 -8.569
-120.00 -8.729
-119.00 -8.796
-118.00 -9.152
-117.00 -9.196
-116.00 -9.503
-115.00 -9.628
-114.00 -9.705
-113.00 -10.023
-112.00 -10.232
-111.00 -10.178
-110.00 -10.153
-109.00 -10.128
-108.00 -10.112
-107.00 -9.731
-106.00 -10.111
-105.00 -9.788
-104.00 -9.483
-103.00 -9.221
-102.00 -9.131
-101.00 -8.998
-100.00 -8.576
-99.00 -8.472
-98.00 -8.307
-97.00 -8.150
-96.00 -8.183
-95.00 -8.041
-94.00 -7.944
-93.00 -8.046
-92.00 -7.981
-91.00 -7.953
-90.00 -8.009
-89.00 -8.101
-88.00 -8.356
-87.00 -8.522
-86.00 -8.668
-85.00 -8.851
-84.00 -8.960
-83.00 -9.489
-82.00 -9.567
-81.00 -9.569
-80.00 -9.816
-79.00 -10.300
-78.00 -10.274
-77.00 -10.427
-76.00 -10.626
-75.00 -11.220
-74.00 -10.709
-73.00 -10.496
-72.00 -10.240
-71.00 -10.211
-70.00 -9.913
-69.00 -9.875
-68.00 -9.511
-67.00 -9.139
-66.00 -8.862
-65.00 -8.534
-64.00 -8.270
-63.00 -7.991
-62.00 -7.695
-61.00 -7.407
-60.00 -7.428
-59.00 -7.045
-58.00 -6.985
-57.00 -6.849
-56.00 -6.826
-55.00 -6.664
-54.00 -6.465
-53.00 -6.508
-52.00 -6.361
-51.00 -6.463
-50.00 -6.407
-49.00 -6.464
-48.00 -6.497
-47.00 -6.465
-46.00 -6.632
-45.00 -6.630
-44.00 -6.656
-43.00 -6.682
-42.00 -6.767
-41.00 -6.969
-40.00 -6.982
-39.00 -7.073
-38.00 -7.322
-37.00 -7.416
-36.00 -7.573
-35.00 -7.531
-34.00 -7.679
-33.00 -7.727
-32.00 -7.924
-31.00 -8.245
-30.00 -8.006
-29.00 -8.317
-28.00 -8.710
-27.00 -8.459
-26.00 -8.651
-25.00 -8.544
-24.00 -8.408
-23.00 -8.655
-22.00 -8.475
-21.00 -8.571
-20.00 -8.556
-19.00 -8.666
-18.00 -8.505
-17.00 -8.460
-16.00 -8.478
-15.00 -8.431
-14.00 -8.376
-13.00 -8.345
-12.00 -8.211
-11.00 -8.362
-10.00 -8.221
-9.00 -8.277
-8.00 -8.173
-7.00 -8.095
-6.00 -8.290
-5.00 -8.108
-4.00 -8.424
-3.00 -8.141
-2.00 -8.123
-1.00 -8.051
0.00 -8.166
1.00 -8.147
2.00 -7.943
3.00 -8.194
4.00 -8.086
5.00 -8.087
6.00 -8.237
7.00 -8.188
8.00 -8.158
9.00 -8.146
10.00 -8.223
11.00 -8.385
12.00 -8.137
13.00 -8.156
14.00 -8.173
15.00 -8.035
16.00 -8.051
17.00 -8.118
18.00 -8.245
19.00 -8.165
20.00 -8.127
21.00 -7.943
22.00 -8.149
23.00 -8.145
24.00 -8.161
25.00 -8.178
26.00 -7.923
27.00 -7.979
28.00 -8.133
29.00 -8.003
30.00 -8.029
31.00 -8.090
32.00 -7.883
33.00 -7.990
34.00 -8.019
35.00 -7.761
36.00 -7.932
37.00 -7.896
38.00 -8.034
39.00 -7.871
40.00 -7.901
41.00 -7.990
42.00 -8.095
43.00 -7.969
44.00 -7.997
45.00 -7.956
46.00 -8.122
47.00 -8.306
48.00 -8.173
49.00 -8.176
50.00 -8.176
51.00 -8.469
52.00 -8.293
53.00 -8.338
54.00 -8.506
55.00 -8.684
56.00 -8.860
57.00 -8.612
58.00 -8.726
59.00 -8.889
60.00 -8.929
61.00 -8.995
62.00 -8.792
63.00 -8.661
64.00 -8.949
65.00 -8.635
66.00 -8.790
67.00 -8.628
68.00 -8.745
69.00 -8.527
70.00 -8.309
71.00 -7.999
72.00 -8.012
73.00 -7.782
74.00 -7.476
75.00 -7.385
76.00 -7.408
77.00 -7.080
78.00 -6.828
79.00 -6.858
80.00 -6.379
81.00 -6.393
82.00 -6.195
83.00 -6.155
84.00 -6.157
85.00 -6.173
86.00 -6.098
87.00 -6.012
88.00 -5.839
89.00 -5.896
90.00 -5.771
91.00 -5.744
92.00 -5.736
93.00 -5.649
94.00 -5.605
95.00 -5.456
96.00 -5.564
97.00 -5.225
98.00 -5.301
99.00 -4.995
100.00 -4.882
101.00 -4.669
102.00 -4.518
103.00 -4.387
104.00 -3.980
105.00 -3.940
106.00 -3.666
107.00 -3.405
108.00 -3.290
109.00 -3.061
110.00 -2.872
111.00 -2.742
112.00 -2.641
113.00 -2.498
114.00 -2.551
115.00 -2.332
116.00 -2.287
117.00 -2.313
118.00 -2.283
119.00 -2.286
120.00 -2.434
121.00 -2.424
122.00 -2.580
123.00 -2.777
124.00 -2.832
125.00 -3.180
126.00 -3.364
127.00 -3.690
128.00 -4.031
129.00 -4.258
130.00 -4.784
131.00 -5.093
132.00 -5.684
133.00 -6.016
134.00 -6.620
135.00 -7.166
136.00 -7.655
137.00 -8.156
138.00 -8.481
139.00 -8.917
140.00 -8.889
141.00 -9.059
142.00 -8.644
143.00 -8.249
144.00 -7.893
145.00 -7.074
146.00 -6.592
147.00 -6.010
148.00 -5.363
149.00 -4.711
150.00 -4.127
151.00 -3.581
152.00 -3.189
153.00 -2.656
154.00 -2.287
155.00 -1.801
156.00 -1.360
157.00 -1.008
158.00 -0.661
159.00 -0.416
160.00 -0.042
161.00 0.223
162.00 0.365
163.00 0.663
164.00 0.850
165.00 1.095
166.00 1.227
167.00 1.393
168.00 1.502
169.00 1.587
170.00 1.689
171.00 1.770
172.00 1.827
173.00 1.902
174.00 1.905
175.00 1.972
176.00 1.937
177.00 1.920
178.00 2.049
179.00 1.963
180.00 1.879
