Ant32 Data File V1.0
Date=21/03/2022
Time=09:49:05
Operator=Cyril
Title=irid
Remarks=Freq. = 1,615 GHz
ScanAxis=Theta
StepAxis=Phi : 90 deg
StepPosition=90
StepUnit=deg
FreqValue=1.615000
RecordIncrement=1
XyzImgAxis=0
XyzImgLabel=0
Abscissa=deg
Ordinate=dBi
Data#1
-180.00 3.009
-179.00 2.992
-178.00 2.898
-177.00 2.844
-176.00 2.765
-175.00 2.659
-174.00 2.613
-173.00 2.422
-172.00 2.276
-171.00 2.078
-170.00 1.948
-169.00 1.807
-168.00 1.614
-167.00 1.334
-166.00 1.143
-165.00 0.911
-164.00 0.573
-163.00 0.314
-162.00 0.037
-161.00 -0.316
-160.00 -0.750
-159.00 -1.077
-158.00 -1.493
-157.00 -2.009
-156.00 -2.474
-155.00 -2.983
-154.00 -3.607
-153.00 -4.245
-152.00 -4.889
-151.00 -5.765
-150.00 -6.370
-149.00 -7.165
-148.00 -8.202
-147.00 -9.102
-146.00 -10.159
-145.00 -11.308
-144.00 -12.503
-143.00 -13.632
-142.00 -13.832
-141.00 -14.693
-140.00 -14.740
-139.00 -14.697
-138.00 -14.529
-137.00 -13.628
-136.00 -12.588
-135.00 -12.177
-134.00 -11.673
-133.00 -10.912
-132.00 -10.206
-131.00 -9.860
-130.00 -9.445
-129.00 -9.184
-128.00 -8.809
-127.00 -8.676
-126.00 -8.516
-125.00 -8.393
-124.00 -8.572
-123.00 -8.567
-122.00 -8.424
-121.00 -8.418
-120.00 -8.625
-119.00 -8.795
-118.00 -8.976
-117.00 -9.203
-116.00 -9.403
-115.00 -9.556
-114.00 -10.019
-113.00 -10.043
-112.00 -10.272
-111.00 -10.493
-110.00 -10.706
-109.00 -10.645
-108.00 -11.070
-107.00 -10.927
-106.00 -10.692
-105.00 -10.750
-104.00 -10.783
-103.00 -10.297
-102.00 -10.258
-101.00 -9.966
-100.00 -9.790
-99.00 -9.392
-98.00 -9.309
-97.00 -9.116
-96.00 -8.966
-95.00 -8.715
-94.00 -8.617
-93.00 -8.522
-92.00 -8.730
-91.00 -8.454
-90.00 -8.552
-89.00 -8.421
-88.00 -8.551
-87.00 -8.690
-86.00 -8.794
-85.00 -8.868
-84.00 -9.043
-83.00 -9.265
-82.00 -9.439
-81.00 -9.752
-80.00 -10.171
-79.00 -10.752
-78.00 -10.795
-77.00 -11.299
-76.00 -11.526
-75.00 -11.920
-74.00 -12.288
-73.00 -12.733
-72.00 -12.771
-71.00 -12.755
-70.00 -13.078
-69.00 -12.870
-68.00 -13.093
-67.00 -12.406
-66.00 -12.461
-65.00 -12.168
-64.00 -11.935
-63.00 -11.553
-62.00 -11.459
-61.00 -10.942
-60.00 -10.593
-59.00 -10.658
-58.00 -10.276
-57.00 -10.068
-56.00 -9.818
-55.00 -9.750
-54.00 -9.497
-53.00 -9.387
-52.00 -9.134
-51.00 -8.955
-50.00 -9.240
-49.00 -9.130
-48.00 -8.931
-47.00 -8.873
-46.00 -8.800
-45.00 -8.968
-44.00 -9.101
-43.00 -9.074
-42.00 -9.248
-41.00 -9.294
-40.00 -9.341
-39.00 -9.708
-38.00 -9.681
-37.00 -9.792
-36.00 -9.817
-35.00 -9.987
-34.00 -10.108
-33.00 -10.320
-32.00 -10.518
-31.00 -10.734
-30.00 -10.987
-29.00 -11.143
-28.00 -10.800
-27.00 -10.974
-26.00 -11.251
-25.00 -11.189
-24.00 -11.524
-23.00 -11.461
-22.00 -11.754
-21.00 -11.725
-20.00 -11.973
-19.00 -11.738
-18.00 -11.595
-17.00 -11.780
-16.00 -11.900
-15.00 -11.895
-14.00 -11.435
-13.00 -11.802
-12.00 -11.636
-11.00 -11.461
-10.00 -11.213
-9.00 -11.387
-8.00 -11.360
-7.00 -11.361
-6.00 -11.156
-5.00 -11.007
-4.00 -10.980
-3.00 -10.751
-2.00 -10.735
-1.00 -10.760
0.00 -10.561
1.00 -10.381
2.00 -10.165
3.00 -10.597
4.00 -10.147
5.00 -10.087
6.00 -9.809
7.00 -9.771
8.00 -9.890
9.00 -9.760
10.00 -9.676
11.00 -9.606
12.00 -9.427
13.00 -9.322
14.00 -9.082
15.00 -9.103
16.00 -8.964
17.00 -8.810
18.00 -8.770
19.00 -8.789
20.00 -8.676
21.00 -8.603
22.00 -8.345
23.00 -8.511
24.00 -8.304
25.00 -8.276
26.00 -8.064
27.00 -8.235
28.00 -8.215
29.00 -8.022
30.00 -8.019
31.00 -8.103
32.00 -7.905
33.00 -7.935
34.00 -7.989
35.00 -7.749
36.00 -7.955
37.00 -7.980
38.00 -7.778
39.00 -7.930
40.00 -7.859
41.00 -8.283
42.00 -7.971
43.00 -8.092
44.00 -8.137
45.00 -8.057
46.00 -8.010
47.00 -8.250
48.00 -8.197
49.00 -8.055
50.00 -8.346
51.00 -8.052
52.00 -8.177
53.00 -8.095
54.00 -7.983
55.00 -7.912
56.00 -7.846
57.00 -7.670
58.00 -7.611
59.00 -7.408
60.00 -7.157
61.00 -7.098
62.00 -6.587
63.00 -6.324
64.00 -6.189
65.00 -5.855
66.00 -5.832
67.00 -5.565
68.00 -5.391
69.00 -5.096
70.00 -5.188
71.00 -4.948
72.00 -4.750
73.00 -4.587
74.00 -4.494
75.00 -4.476
76.00 -4.265
77.00 -4.412
78.00 -4.415
79.00 -4.490
80.00 -4.523
81.00 -4.739
82.00 -4.767
83.00 -5.081
84.00 -5.127
85.00 -5.474
86.00 -5.774
87.00 -6.049
88.00 -6.160
89.00 -6.344
90.00 -6.451
91.00 -6.744
92.00 -6.896
93.00 -6.586
94.00 -6.513
95.00 -6.432
96.00 -6.381
97.00 -6.022
98.00 -5.754
99.00 -5.281
100.00 -4.923
101.00 -4.578
102.00 -4.265
103.00 -3.765
104.00 -3.489
105.00 -3.133
106.00 -2.713
107.00 -2.495
108.00 -2.227
109.00 -2.060
110.00 -1.907
111.00 -1.798
112.00 -1.667
113.00 -1.604
114.00 -1.676
115.00 -1.783
116.00 -1.812
117.00 -1.862
118.00 -2.082
119.00 -2.286
120.00 -2.425
121.00 -2.645
122.00 -3.065
123.00 -3.443
124.00 -3.806
125.00 -4.157
126.00 -4.768
127.00 -5.322
128.00 -5.827
129.00 -6.657
130.00 -7.515
131.00 -8.363
132.00 -9.254
133.00 -10.223
134.00 -11.586
135.00 -12.558
136.00 -14.030
137.00 -14.503
138.00 -14.143
139.00 -13.613
140.00 -12.729
141.00 -11.451
142.00 -10.214
143.00 -9.040
144.00 -8.056
145.00 -6.872
146.00 -6.020
147.00 -5.203
148.00 -4.468
149.00 -3.927
150.00 -3.321
151.00 -2.634
152.00 -2.185
153.00 -1.606
154.00 -1.165
155.00 -0.732
156.00 -0.320
157.00 0.094
158.00 0.292
159.00 0.629
160.00 1.004
161.00 1.200
162.00 1.469
163.00 1.672
164.00 1.776
165.00 2.002
166.00 2.194
167.00 2.358
168.00 2.423
169.00 2.565
170.00 2.695
171.00 2.781
172.00 2.856
173.00 2.961
174.00 2.934
175.00 3.037
176.00 3.014
177.00 3.011
178.00 3.070
179.00 3.010
180.00 3.013
