Ant32 Data File V1.0
Date=21/03/2022
Time=09:49:05
Operator=Cyril
Title=irid
Remarks=Freq. = 1,63 GHz
ScanAxis=Theta
StepAxis=Phi : 90 deg
StepPosition=90
StepUnit=deg
FreqValue=1.630000
RecordIncrement=1
XyzImgAxis=0
XyzImgLabel=0
Abscissa=deg
Ordinate=dBi
Data#1
-180.00 1.340
-179.00 1.276
-178.00 1.289
-177.00 1.288
-176.00 1.179
-175.00 1.093
-174.00 0.966
-173.00 0.868
-172.00 0.753
-171.00 0.641
-170.00 0.481
-169.00 0.270
-168.00 0.079
-167.00 -0.185
-166.00 -0.246
-165.00 -0.560
-164.00 -0.858
-163.00 -1.097
-162.00 -1.442
-161.00 -1.799
-160.00 -2.195
-159.00 -2.460
-158.00 -2.879
-157.00 -3.389
-156.00 -3.771
-155.00 -4.333
-154.00 -4.862
-153.00 -5.481
-152.00 -6.038
-151.00 -6.676
-150.00 -7.277
-149.00 -8.244
-148.00 -9.064
-147.00 -9.871
-146.00 -10.697
-145.00 -11.651
-144.00 -13.052
-143.00 -13.676
-142.00 -15.623
-141.00 -16.712
-140.00 -18.147
-139.00 -19.046
-138.00 -20.354
-137.00 -21.043
-136.00 -21.241
-135.00 -20.938
-134.00 -20.050
-133.00 -18.913
-132.00 -18.925
-131.00 -17.542
-130.00 -17.429
-129.00 -16.569
-128.00 -16.753
-127.00 -15.995
-126.00 -15.920
-125.00 -15.551
-124.00 -15.357
-123.00 -15.098
-122.00 -15.229
-121.00 -15.607
-120.00 -14.965
-119.00 -15.325
-118.00 -15.318
-117.00 -15.065
-116.00 -14.752
-115.00 -15.197
-114.00 -15.361
-113.00 -15.670
-112.00 -15.527
-111.00 -15.389
-110.00 -16.352
-109.00 -15.900
-108.00 -15.759
-107.00 -16.342
-106.00 -16.402
-105.00 -16.623
-104.00 -17.278
-103.00 -17.571
-102.00 -17.257
-101.00 -17.748
-100.00 -17.844
-99.00 -17.869
-98.00 -18.313
-97.00 -18.749
-96.00 -18.654
-95.00 -18.538
-94.00 -19.044
-93.00 -18.687
-92.00 -19.314
-91.00 -19.516
-90.00 -19.184
-89.00 -19.067
-88.00 -18.176
-87.00 -18.323
-86.00 -17.927
-85.00 -17.269
-84.00 -17.205
-83.00 -16.961
-82.00 -16.616
-81.00 -16.658
-80.00 -15.885
-79.00 -15.791
-78.00 -15.334
-77.00 -15.288
-76.00 -14.849
-75.00 -14.472
-74.00 -14.112
-73.00 -13.850
-72.00 -13.406
-71.00 -13.623
-70.00 -13.449
-69.00 -12.972
-68.00 -13.048
-67.00 -12.580
-66.00 -12.361
-65.00 -12.529
-64.00 -11.925
-63.00 -11.979
-62.00 -11.770
-61.00 -11.586
-60.00 -11.169
-59.00 -11.237
-58.00 -11.058
-57.00 -10.755
-56.00 -10.569
-55.00 -10.538
-54.00 -10.285
-53.00 -10.061
-52.00 -9.910
-51.00 -9.567
-50.00 -9.490
-49.00 -9.149
-48.00 -8.971
-47.00 -8.976
-46.00 -8.524
-45.00 -8.609
-44.00 -8.204
-43.00 -8.113
-42.00 -7.760
-41.00 -7.658
-40.00 -7.680
-39.00 -7.336
-38.00 -7.321
-37.00 -7.168
-36.00 -7.154
-35.00 -7.154
-34.00 -7.001
-33.00 -6.973
-32.00 -6.837
-31.00 -6.769
-30.00 -6.759
-29.00 -6.924
-28.00 -6.646
-27.00 -6.770
-26.00 -6.804
-25.00 -6.726
-24.00 -6.854
-23.00 -6.721
-22.00 -6.832
-21.00 -6.990
-20.00 -7.017
-19.00 -6.996
-18.00 -7.208
-17.00 -7.097
-16.00 -7.254
-15.00 -7.155
-14.00 -7.156
-13.00 -7.319
-12.00 -7.345
-11.00 -7.284
-10.00 -7.553
-9.00 -7.314
-8.00 -7.616
-7.00 -7.659
-6.00 -7.901
-5.00 -7.578
-4.00 -7.817
-3.00 -7.953
-2.00 -7.744
-1.00 -7.997
0.00 -8.010
1.00 -8.250
2.00 -8.132
3.00 -8.168
4.00 -8.302
5.00 -8.479
6.00 -8.597
7.00 -8.528
8.00 -8.483
9.00 -8.466
10.00 -8.544
11.00 -8.844
12.00 -8.984
13.00 -8.795
14.00 -8.808
15.00 -8.762
16.00 -8.829
17.00 -8.801
18.00 -8.894
19.00 -8.936
20.00 -8.836
21.00 -8.855
22.00 -8.925
23.00 -8.791
24.00 -8.694
25.00 -8.589
26.00 -8.631
27.00 -8.409
28.00 -8.404
29.00 -8.287
30.00 -8.105
31.00 -8.029
32.00 -8.022
33.00 -7.944
34.00 -7.890
35.00 -7.746
36.00 -7.665
37.00 -7.895
38.00 -7.842
39.00 -7.838
40.00 -7.778
41.00 -7.839
42.00 -7.744
43.00 -7.612
44.00 -7.660
45.00 -7.626
46.00 -7.953
47.00 -7.875
48.00 -7.969
49.00 -8.209
50.00 -8.183
51.00 -8.371
52.00 -8.409
53.00 -8.752
54.00 -8.902
55.00 -9.129
56.00 -9.250
57.00 -9.722
58.00 -9.898
59.00 -10.337
60.00 -10.892
61.00 -11.512
62.00 -11.665
63.00 -12.566
64.00 -13.255
65.00 -14.147
66.00 -14.875
67.00 -15.805
68.00 -16.572
69.00 -17.383
70.00 -19.466
71.00 -21.731
72.00 -23.039
73.00 -24.575
74.00 -28.747
75.00 -33.421
76.00 -34.822
77.00 -29.069
78.00 -28.267
79.00 -24.979
80.00 -23.518
81.00 -22.363
82.00 -21.657
83.00 -20.619
84.00 -20.702
85.00 -20.752
86.00 -20.275
87.00 -20.266
88.00 -20.904
89.00 -20.886
90.00 -21.494
91.00 -21.171
92.00 -21.197
93.00 -19.912
94.00 -18.443
95.00 -17.990
96.00 -16.561
97.00 -15.306
98.00 -14.228
99.00 -13.145
100.00 -12.642
101.00 -11.843
102.00 -10.703
103.00 -10.230
104.00 -9.616
105.00 -9.114
106.00 -8.797
107.00 -8.396
108.00 -8.174
109.00 -8.006
110.00 -7.706
111.00 -7.762
112.00 -7.828
113.00 -7.805
114.00 -7.908
115.00 -8.023
116.00 -8.468
117.00 -8.645
118.00 -9.178
119.00 -9.603
120.00 -9.955
121.00 -10.439
122.00 -11.263
123.00 -12.054
124.00 -13.380
125.00 -13.886
126.00 -15.346
127.00 -16.770
128.00 -18.684
129.00 -21.055
130.00 -23.366
131.00 -24.598
132.00 -25.281
133.00 -23.204
134.00 -21.357
135.00 -18.227
136.00 -16.857
137.00 -14.972
138.00 -13.132
139.00 -12.051
140.00 -11.075
141.00 -10.329
142.00 -9.403
143.00 -8.291
144.00 -7.713
145.00 -7.168
146.00 -6.363
147.00 -5.760
148.00 -5.335
149.00 -4.741
150.00 -4.245
151.00 -3.951
152.00 -3.370
153.00 -3.078
154.00 -2.755
155.00 -2.316
156.00 -1.962
157.00 -1.656
158.00 -1.263
159.00 -1.047
160.00 -0.786
161.00 -0.586
162.00 -0.337
163.00 -0.170
164.00 0.035
165.00 0.280
166.00 0.447
167.00 0.539
168.00 0.722
169.00 0.845
170.00 0.956
171.00 1.096
172.00 1.141
173.00 1.121
174.00 1.287
175.00 1.326
176.00 1.391
177.00 1.296
178.00 1.446
179.00 1.394
180.00 1.439
