Ant32 Data File V1.0
Date=21/03/2022
Time=09:49:05
Operator=Cyril
Title=irid
Remarks=Freq. = 1,624 GHz
ScanAxis=Theta
StepAxis=Phi : 90 deg
StepPosition=90
StepUnit=deg
FreqValue=1.624000
RecordIncrement=1
XyzImgAxis=0
XyzImgLabel=0
Abscissa=deg
Ordinate=dBi
Data#1
-180.00 3.016
-179.00 2.981
-178.00 2.967
-177.00 2.878
-176.00 2.767
-175.00 2.678
-174.00 2.607
-173.00 2.503
-172.00 2.365
-171.00 2.200
-170.00 2.028
-169.00 1.865
-168.00 1.666
-167.00 1.484
-166.00 1.259
-165.00 0.950
-164.00 0.721
-163.00 0.469
-162.00 0.051
-161.00 -0.125
-160.00 -0.562
-159.00 -0.977
-158.00 -1.356
-157.00 -1.828
-156.00 -2.288
-155.00 -2.834
-154.00 -3.331
-153.00 -3.903
-152.00 -4.573
-151.00 -5.340
-150.00 -5.791
-149.00 -6.614
-148.00 -7.377
-147.00 -8.282
-146.00 -9.217
-145.00 -10.093
-144.00 -11.268
-143.00 -12.168
-142.00 -13.008
-141.00 -14.394
-140.00 -15.081
-139.00 -15.493
-138.00 -15.153
-137.00 -15.128
-136.00 -15.191
-135.00 -14.118
-134.00 -13.918
-133.00 -13.156
-132.00 -12.835
-131.00 -12.489
-130.00 -12.144
-129.00 -11.973
-128.00 -11.241
-127.00 -11.483
-126.00 -11.166
-125.00 -11.204
-124.00 -11.033
-123.00 -10.878
-122.00 -10.943
-121.00 -11.218
-120.00 -10.998
-119.00 -11.364
-118.00 -11.647
-117.00 -11.167
-116.00 -11.448
-115.00 -11.384
-114.00 -11.531
-113.00 -12.153
-112.00 -11.513
-111.00 -11.745
-110.00 -11.714
-109.00 -12.326
-108.00 -12.413
-107.00 -12.323
-106.00 -12.220
-105.00 -12.240
-104.00 -12.235
-103.00 -11.820
-102.00 -12.008
-101.00 -12.270
-100.00 -12.137
-99.00 -12.284
-98.00 -11.945
-97.00 -11.833
-96.00 -11.785
-95.00 -12.034
-94.00 -11.546
-93.00 -11.757
-92.00 -11.591
-91.00 -11.881
-90.00 -12.068
-89.00 -12.246
-88.00 -12.017
-87.00 -12.231
-86.00 -12.102
-85.00 -12.493
-84.00 -12.402
-83.00 -12.764
-82.00 -12.608
-81.00 -12.549
-80.00 -12.844
-79.00 -13.044
-78.00 -13.055
-77.00 -13.098
-76.00 -13.556
-75.00 -13.864
-74.00 -13.919
-73.00 -14.104
-72.00 -14.291
-71.00 -14.276
-70.00 -14.809
-69.00 -14.638
-68.00 -14.920
-67.00 -15.304
-66.00 -15.160
-65.00 -14.804
-64.00 -15.177
-63.00 -15.379
-62.00 -14.853
-61.00 -15.091
-60.00 -15.131
-59.00 -14.749
-58.00 -14.812
-57.00 -13.992
-56.00 -13.897
-55.00 -13.756
-54.00 -13.242
-53.00 -12.877
-52.00 -12.524
-51.00 -12.248
-50.00 -12.011
-49.00 -11.895
-48.00 -11.659
-47.00 -11.103
-46.00 -10.938
-45.00 -10.459
-44.00 -10.190
-43.00 -10.248
-42.00 -9.885
-41.00 -9.547
-40.00 -9.732
-39.00 -9.262
-38.00 -9.214
-37.00 -8.894
-36.00 -8.852
-35.00 -8.645
-34.00 -8.471
-33.00 -8.636
-32.00 -8.460
-31.00 -8.511
-30.00 -8.386
-29.00 -8.498
-28.00 -8.380
-27.00 -8.331
-26.00 -8.496
-25.00 -8.210
-24.00 -8.671
-23.00 -8.442
-22.00 -8.496
-21.00 -8.523
-20.00 -8.685
-19.00 -8.750
-18.00 -8.765
-17.00 -8.895
-16.00 -8.896
-15.00 -8.951
-14.00 -9.066
-13.00 -8.991
-12.00 -9.383
-11.00 -9.210
-10.00 -9.399
-9.00 -9.440
-8.00 -9.376
-7.00 -9.507
-6.00 -9.540
-5.00 -9.739
-4.00 -9.931
-3.00 -10.193
-2.00 -9.895
-1.00 -10.148
0.00 -10.331
1.00 -10.548
2.00 -10.746
3.00 -10.453
4.00 -10.901
5.00 -11.259
6.00 -11.114
7.00 -11.366
8.00 -11.259
9.00 -11.543
10.00 -11.883
11.00 -12.091
12.00 -11.869
13.00 -12.177
14.00 -12.208
15.00 -12.665
16.00 -12.742
17.00 -12.819
18.00 -13.033
19.00 -13.406
20.00 -12.963
21.00 -13.497
22.00 -13.487
23.00 -13.640
24.00 -13.301
25.00 -13.711
26.00 -13.359
27.00 -14.094
28.00 -13.414
29.00 -13.166
30.00 -13.693
31.00 -13.425
32.00 -13.388
33.00 -13.433
34.00 -13.414
35.00 -13.310
36.00 -13.256
37.00 -13.155
38.00 -12.799
39.00 -13.150
40.00 -12.604
41.00 -12.882
42.00 -12.731
43.00 -12.423
44.00 -12.448
45.00 -12.434
46.00 -12.129
47.00 -11.839
48.00 -11.656
49.00 -11.981
50.00 -11.548
51.00 -11.245
52.00 -11.496
53.00 -11.172
54.00 -11.226
55.00 -11.166
56.00 -10.884
57.00 -10.918
58.00 -10.902
59.00 -10.692
60.00 -10.535
61.00 -10.723
62.00 -10.741
63.00 -10.528
64.00 -10.670
65.00 -10.747
66.00 -10.657
67.00 -10.897
68.00 -10.577
69.00 -10.668
70.00 -10.885
71.00 -11.251
72.00 -10.832
73.00 -11.334
74.00 -11.530
75.00 -11.841
76.00 -12.131
77.00 -12.312
78.00 -12.685
79.00 -13.099
80.00 -13.471
81.00 -14.233
82.00 -15.032
83.00 -15.305
84.00 -16.424
85.00 -16.701
86.00 -17.476
87.00 -17.465
88.00 -17.389
89.00 -16.704
90.00 -16.128
91.00 -15.236
92.00 -13.936
93.00 -12.941
94.00 -12.148
95.00 -10.989
96.00 -10.243
97.00 -9.332
98.00 -8.659
99.00 -7.806
100.00 -7.256
101.00 -6.654
102.00 -6.220
103.00 -5.822
104.00 -5.338
105.00 -5.104
106.00 -4.811
107.00 -4.508
108.00 -4.399
109.00 -4.322
110.00 -4.158
111.00 -4.128
112.00 -4.146
113.00 -4.274
114.00 -4.322
115.00 -4.519
116.00 -4.672
117.00 -4.893
118.00 -5.279
119.00 -5.652
120.00 -6.087
121.00 -6.460
122.00 -6.967
123.00 -7.488
124.00 -8.096
125.00 -8.734
126.00 -9.489
127.00 -10.247
128.00 -11.134
129.00 -11.922
130.00 -13.007
131.00 -13.808
132.00 -14.318
133.00 -14.717
134.00 -14.848
135.00 -14.214
136.00 -13.460
137.00 -12.528
138.00 -11.457
139.00 -10.619
140.00 -9.473
141.00 -8.441
142.00 -7.701
143.00 -6.859
144.00 -6.206
145.00 -5.361
146.00 -4.682
147.00 -4.198
148.00 -3.601
149.00 -2.931
150.00 -2.631
151.00 -2.063
152.00 -1.657
153.00 -1.306
154.00 -0.855
155.00 -0.543
156.00 -0.205
157.00 0.188
158.00 0.455
159.00 0.736
160.00 1.000
161.00 1.242
162.00 1.482
163.00 1.688
164.00 1.938
165.00 2.064
166.00 2.216
167.00 2.359
168.00 2.501
169.00 2.624
170.00 2.745
171.00 2.806
172.00 2.901
173.00 2.985
174.00 2.987
175.00 3.074
176.00 3.031
177.00 3.037
178.00 3.057
179.00 3.097
180.00 3.066
