Ant32 Data File V1.0
Date=21/03/2022
Time=09:45:38
Operator=Cyril
Title=irid
Remarks=Freq. = 1,611 GHz
ScanAxis=Theta
StepAxis=Phi : 0 deg
StepPosition=0
StepUnit=deg
FreqValue=1.611000
RecordIncrement=1
XyzImgAxis=0
XyzImgLabel=0
Abscissa=deg
Ordinate=dBi
Data#1
-180.00 2.052
-179.00 2.099
-178.00 2.019
-177.00 1.934
-176.00 1.828
-175.00 1.832
-174.00 1.677
-173.00 1.567
-172.00 1.453
-171.00 1.275
-170.00 1.162
-169.00 0.936
-168.00 0.746
-167.00 0.526
-166.00 0.406
-165.00 0.268
-164.00 0.016
-163.00 -0.253
-162.00 -0.493
-161.00 -0.738
-160.00 -1.082
-159.00 -1.319
-158.00 -1.643
-157.00 -2.041
-156.00 -2.298
-155.00 -2.660
-154.00 -3.007
-153.00 -3.308
-152.00 -3.639
-151.00 -4.057
-150.00 -4.573
-149.00 -4.827
-148.00 -5.194
-147.00 -5.612
-146.00 -5.881
-145.00 -6.061
-144.00 -6.419
-143.00 -6.663
-142.00 -6.774
-141.00 -6.840
-140.00 -7.049
-139.00 -7.349
-138.00 -7.381
-137.00 -7.530
-136.00 -7.656
-135.00 -7.638
-134.00 -7.802
-133.00 -7.714
-132.00 -7.918
-131.00 -8.259
-130.00 -8.133
-129.00 -8.408
-128.00 -8.637
-127.00 -8.527
-126.00 -9.225
-125.00 -9.600
-124.00 -9.681
-123.00 -10.015
-122.00 -10.604
-121.00 -10.786
-120.00 -11.434
-119.00 -11.864
-118.00 -12.653
-117.00 -13.115
-116.00 -13.635
-115.00 -14.089
-114.00 -15.339
-113.00 -15.949
-112.00 -16.447
-111.00 -17.305
-110.00 -17.544
-109.00 -17.882
-108.00 -17.754
-107.00 -17.947
-106.00 -17.277
-105.00 -17.161
-104.00 -16.250
-103.00 -15.837
-102.00 -15.230
-101.00 -14.443
-100.00 -14.102
-99.00 -13.450
-98.00 -13.386
-97.00 -12.914
-96.00 -12.584
-95.00 -12.043
-94.00 -11.951
-93.00 -11.764
-92.00 -11.364
-91.00 -11.249
-90.00 -10.863
-89.00 -10.736
-88.00 -10.519
-87.00 -10.436
-86.00 -10.381
-85.00 -10.437
-84.00 -10.463
-83.00 -10.423
-82.00 -10.260
-81.00 -10.723
-80.00 -10.504
-79.00 -10.639
-78.00 -11.027
-77.00 -11.108
-76.00 -11.085
-75.00 -11.565
-74.00 -11.489
-73.00 -12.357
-72.00 -12.508
-71.00 -12.852
-70.00 -13.070
-69.00 -13.384
-68.00 -14.089
-67.00 -14.456
-66.00 -15.079
-65.00 -15.905
-64.00 -16.356
-63.00 -16.511
-62.00 -16.786
-61.00 -16.685
-60.00 -16.187
-59.00 -15.776
-58.00 -15.617
-57.00 -14.620
-56.00 -13.960
-55.00 -13.098
-54.00 -12.516
-53.00 -11.891
-52.00 -11.144
-51.00 -10.715
-50.00 -9.909
-49.00 -9.515
-48.00 -9.104
-47.00 -8.813
-46.00 -8.273
-45.00 -8.108
-44.00 -7.729
-43.00 -7.283
-42.00 -7.015
-41.00 -6.796
-40.00 -6.608
-39.00 -6.400
-38.00 -6.175
-37.00 -6.083
-36.00 -5.911
-35.00 -5.688
-34.00 -5.780
-33.00 -5.766
-32.00 -5.434
-31.00 -5.247
-30.00 -5.358
-29.00 -5.288
-28.00 -5.275
-27.00 -5.289
-26.00 -5.164
-25.00 -5.218
-24.00 -5.197
-23.00 -5.288
-22.00 -5.328
-21.00 -5.417
-20.00 -5.439
-19.00 -5.518
-18.00 -5.732
-17.00 -5.669
-16.00 -5.990
-15.00 -5.811
-14.00 -5.816
-13.00 -6.033
-12.00 -5.991
-11.00 -5.903
-10.00 -6.357
-9.00 -6.139
-8.00 -6.336
-7.00 -6.251
-6.00 -6.327
-5.00 -6.387
-4.00 -6.473
-3.00 -6.242
-2.00 -6.581
-1.00 -6.508
0.00 -6.743
1.00 -6.581
2.00 -6.665
3.00 -6.749
4.00 -6.647
5.00 -6.613
6.00 -6.690
7.00 -6.772
8.00 -6.857
9.00 -6.850
10.00 -6.735
11.00 -6.729
12.00 -6.660
13.00 -6.620
14.00 -6.864
15.00 -6.634
16.00 -6.595
17.00 -6.650
18.00 -6.571
19.00 -6.538
20.00 -6.622
21.00 -6.528
22.00 -6.503
23.00 -6.333
24.00 -6.581
25.00 -6.302
26.00 -6.398
27.00 -6.303
28.00 -6.339
29.00 -6.251
30.00 -6.265
31.00 -6.235
32.00 -6.413
33.00 -6.281
34.00 -6.245
35.00 -6.219
36.00 -6.249
37.00 -6.339
38.00 -6.222
39.00 -6.215
40.00 -6.263
41.00 -6.281
42.00 -6.256
43.00 -6.334
44.00 -6.258
45.00 -6.163
46.00 -6.135
47.00 -6.108
48.00 -6.196
49.00 -5.979
50.00 -6.044
51.00 -6.001
52.00 -5.964
53.00 -6.045
54.00 -5.906
55.00 -5.815
56.00 -5.755
57.00 -5.583
58.00 -5.489
59.00 -5.587
60.00 -5.588
61.00 -5.457
62.00 -5.476
63.00 -5.321
64.00 -5.282
65.00 -5.326
66.00 -5.139
67.00 -5.322
68.00 -5.121
69.00 -5.260
70.00 -5.278
71.00 -5.179
72.00 -5.397
73.00 -5.417
74.00 -5.464
75.00 -5.445
76.00 -5.557
77.00 -5.513
78.00 -5.727
79.00 -5.672
80.00 -5.766
81.00 -5.985
82.00 -6.041
83.00 -5.988
84.00 -6.013
85.00 -6.071
86.00 -5.989
87.00 -6.087
88.00 -6.046
89.00 -5.940
90.00 -5.829
91.00 -5.817
92.00 -5.695
93.00 -5.605
94.00 -5.447
95.00 -5.358
96.00 -5.315
97.00 -5.097
98.00 -4.997
99.00 -4.790
100.00 -4.582
101.00 -4.443
102.00 -4.246
103.00 -4.158
104.00 -4.015
105.00 -3.781
106.00 -3.681
107.00 -3.571
108.00 -3.439
109.00 -3.351
110.00 -3.229
111.00 -3.130
112.00 -3.222
113.00 -3.092
114.00 -3.038
115.00 -3.026
116.00 -2.992
117.00 -3.020
118.00 -3.005
119.00 -3.255
120.00 -3.298
121.00 -3.352
122.00 -3.395
123.00 -3.615
124.00 -3.785
125.00 -4.026
126.00 -4.243
127.00 -4.550
128.00 -4.710
129.00 -5.218
130.00 -5.403
131.00 -5.721
132.00 -6.063
133.00 -6.493
134.00 -6.981
135.00 -7.228
136.00 -7.417
137.00 -7.744
138.00 -7.654
139.00 -7.673
140.00 -7.862
141.00 -7.241
142.00 -7.163
143.00 -6.813
144.00 -6.116
145.00 -5.780
146.00 -5.345
147.00 -4.761
148.00 -4.166
149.00 -3.723
150.00 -3.293
151.00 -2.754
152.00 -2.298
153.00 -1.909
154.00 -1.410
155.00 -1.178
156.00 -0.749
157.00 -0.426
158.00 -0.186
159.00 0.050
160.00 0.361
161.00 0.637
162.00 0.861
163.00 0.973
164.00 1.214
165.00 1.326
166.00 1.460
167.00 1.603
168.00 1.749
169.00 1.822
170.00 1.933
171.00 1.982
172.00 2.053
173.00 2.086
174.00 2.152
175.00 2.125
176.00 2.185
177.00 2.254
178.00 2.123
179.00 2.196
180.00 2.156
