Ant32 Data File V1.0
Date=21/03/2022
Time=09:45:38
Operator=Cyril
Title=irid
Remarks=Freq. = 1,61 GHz
ScanAxis=Theta
StepAxis=Phi : 0 deg
StepPosition=0
StepUnit=deg
FreqValue=1.610000
RecordIncrement=1
XyzImgAxis=0
XyzImgLabel=0
Abscissa=deg
Ordinate=dBi
Data#1
-180.00 1.839
-179.00 1.900
-178.00 1.860
-177.00 1.740
-176.00 1.613
-175.00 1.570
-174.00 1.400
-173.00 1.350
-172.00 1.249
-171.00 0.997
-170.00 0.917
-169.00 0.790
-168.00 0.514
-167.00 0.399
-166.00 0.235
-165.00 -0.057
-164.00 -0.262
-163.00 -0.483
-162.00 -0.619
-161.00 -0.941
-160.00 -1.204
-159.00 -1.522
-158.00 -1.920
-157.00 -2.076
-156.00 -2.522
-155.00 -2.949
-154.00 -3.135
-153.00 -3.534
-152.00 -3.941
-151.00 -4.136
-150.00 -4.712
-149.00 -4.965
-148.00 -5.335
-147.00 -5.680
-146.00 -5.819
-145.00 -6.184
-144.00 -6.379
-143.00 -6.567
-142.00 -6.782
-141.00 -6.890
-140.00 -7.279
-139.00 -7.301
-138.00 -7.469
-137.00 -7.501
-136.00 -7.581
-135.00 -7.818
-134.00 -7.718
-133.00 -7.686
-132.00 -7.962
-131.00 -7.817
-130.00 -8.170
-129.00 -8.329
-128.00 -8.466
-127.00 -8.390
-126.00 -8.793
-125.00 -9.190
-124.00 -9.354
-123.00 -9.528
-122.00 -9.942
-121.00 -10.735
-120.00 -10.876
-119.00 -11.285
-118.00 -12.132
-117.00 -12.525
-116.00 -13.171
-115.00 -14.160
-114.00 -14.322
-113.00 -15.263
-112.00 -15.825
-111.00 -16.371
-110.00 -16.325
-109.00 -16.966
-108.00 -16.869
-107.00 -17.337
-106.00 -16.856
-105.00 -16.411
-104.00 -15.394
-103.00 -15.676
-102.00 -14.644
-101.00 -13.975
-100.00 -13.459
-99.00 -13.080
-98.00 -12.617
-97.00 -12.178
-96.00 -12.334
-95.00 -11.348
-94.00 -11.537
-93.00 -11.056
-92.00 -10.875
-91.00 -10.832
-90.00 -10.691
-89.00 -10.169
-88.00 -10.078
-87.00 -10.068
-86.00 -9.949
-85.00 -10.062
-84.00 -10.067
-83.00 -9.668
-82.00 -9.949
-81.00 -10.091
-80.00 -10.172
-79.00 -10.483
-78.00 -10.517
-77.00 -10.557
-76.00 -10.740
-75.00 -10.912
-74.00 -11.378
-73.00 -11.320
-72.00 -11.933
-71.00 -12.414
-70.00 -12.988
-69.00 -13.218
-68.00 -13.814
-67.00 -14.439
-66.00 -14.500
-65.00 -15.082
-64.00 -15.541
-63.00 -15.994
-62.00 -15.820
-61.00 -15.816
-60.00 -15.387
-59.00 -14.811
-58.00 -14.238
-57.00 -13.613
-56.00 -12.548
-55.00 -12.169
-54.00 -11.804
-53.00 -11.367
-52.00 -10.623
-51.00 -10.019
-50.00 -9.693
-49.00 -9.015
-48.00 -8.729
-47.00 -8.298
-46.00 -7.715
-45.00 -7.382
-44.00 -7.091
-43.00 -6.905
-42.00 -6.622
-41.00 -6.286
-40.00 -6.180
-39.00 -6.047
-38.00 -5.797
-37.00 -5.704
-36.00 -5.496
-35.00 -5.318
-34.00 -5.351
-33.00 -5.321
-32.00 -5.069
-31.00 -5.275
-30.00 -5.057
-29.00 -5.089
-28.00 -5.107
-27.00 -5.167
-26.00 -5.076
-25.00 -5.128
-24.00 -5.140
-23.00 -5.184
-22.00 -5.129
-21.00 -5.221
-20.00 -5.328
-19.00 -5.468
-18.00 -5.525
-17.00 -5.382
-16.00 -5.566
-15.00 -5.534
-14.00 -5.624
-13.00 -5.566
-12.00 -5.834
-11.00 -5.902
-10.00 -6.025
-9.00 -6.219
-8.00 -6.179
-7.00 -6.316
-6.00 -6.176
-5.00 -6.249
-4.00 -6.330
-3.00 -6.287
-2.00 -6.408
-1.00 -6.310
0.00 -6.419
1.00 -6.509
2.00 -6.406
3.00 -6.463
4.00 -6.538
5.00 -6.537
6.00 -6.479
7.00 -6.360
8.00 -6.462
9.00 -6.506
10.00 -6.428
11.00 -6.353
12.00 -6.450
13.00 -6.482
14.00 -6.374
15.00 -6.504
16.00 -6.614
17.00 -6.337
18.00 -6.234
19.00 -6.396
20.00 -6.242
21.00 -6.108
22.00 -6.234
23.00 -6.185
24.00 -6.111
25.00 -6.017
26.00 -6.115
27.00 -6.036
28.00 -5.879
29.00 -5.958
30.00 -6.029
31.00 -5.931
32.00 -6.025
33.00 -6.106
34.00 -5.904
35.00 -5.963
36.00 -5.904
37.00 -5.730
38.00 -5.878
39.00 -5.984
40.00 -5.990
41.00 -5.918
42.00 -5.986
43.00 -5.877
44.00 -5.874
45.00 -6.021
46.00 -5.903
47.00 -5.833
48.00 -5.849
49.00 -5.662
50.00 -5.702
51.00 -5.635
52.00 -5.506
53.00 -5.655
54.00 -5.617
55.00 -5.407
56.00 -5.471
57.00 -5.301
58.00 -5.440
59.00 -5.198
60.00 -5.328
61.00 -4.990
62.00 -5.125
63.00 -5.128
64.00 -4.983
65.00 -4.982
66.00 -5.097
67.00 -4.971
68.00 -4.949
69.00 -4.970
70.00 -5.085
71.00 -5.173
72.00 -5.155
73.00 -5.171
74.00 -5.235
75.00 -5.323
76.00 -5.378
77.00 -5.472
78.00 -5.549
79.00 -5.485
80.00 -5.468
81.00 -5.666
82.00 -5.806
83.00 -5.682
84.00 -5.890
85.00 -5.768
86.00 -5.921
87.00 -5.959
88.00 -5.811
89.00 -5.825
90.00 -5.775
91.00 -5.664
92.00 -5.578
93.00 -5.581
94.00 -5.352
95.00 -5.175
96.00 -5.130
97.00 -5.039
98.00 -4.766
99.00 -4.639
100.00 -4.590
101.00 -4.390
102.00 -4.134
103.00 -4.068
104.00 -3.890
105.00 -3.850
106.00 -3.691
107.00 -3.561
108.00 -3.446
109.00 -3.378
110.00 -3.296
111.00 -3.201
112.00 -3.116
113.00 -3.121
114.00 -3.180
115.00 -3.136
116.00 -3.081
117.00 -3.092
118.00 -3.203
119.00 -3.288
120.00 -3.299
121.00 -3.450
122.00 -3.626
123.00 -3.805
124.00 -3.915
125.00 -4.185
126.00 -4.288
127.00 -4.635
128.00 -4.897
129.00 -5.223
130.00 -5.517
131.00 -5.929
132.00 -6.100
133.00 -6.574
134.00 -6.927
135.00 -7.287
136.00 -7.585
137.00 -7.768
138.00 -7.499
139.00 -7.685
140.00 -7.790
141.00 -7.561
142.00 -7.218
143.00 -6.776
144.00 -6.215
145.00 -5.948
146.00 -5.424
147.00 -4.873
148.00 -4.260
149.00 -3.881
150.00 -3.438
151.00 -2.955
152.00 -2.548
153.00 -2.100
154.00 -1.725
155.00 -1.412
156.00 -0.986
157.00 -0.732
158.00 -0.345
159.00 -0.107
160.00 0.191
161.00 0.434
162.00 0.641
163.00 0.767
164.00 0.989
165.00 1.121
166.00 1.281
167.00 1.348
168.00 1.527
169.00 1.604
170.00 1.726
171.00 1.756
172.00 1.864
173.00 1.875
174.00 1.938
175.00 1.911
176.00 1.998
177.00 1.956
178.00 2.011
179.00 1.989
180.00 1.894
