Ant32 Data File V1.0
Date=21/03/2022
Time=09:49:05
Operator=Cyril
Title=irid
Remarks=Freq. = 1,628 GHz
ScanAxis=Theta
StepAxis=Phi : 90 deg
StepPosition=90
StepUnit=deg
FreqValue=1.628000
RecordIncrement=1
XyzImgAxis=0
XyzImgLabel=0
Abscissa=deg
Ordinate=dBi
Data#1
-180.00 2.077
-179.00 1.980
-178.00 1.968
-177.00 1.908
-176.00 1.825
-175.00 1.799
-174.00 1.730
-173.00 1.542
-172.00 1.431
-171.00 1.241
-170.00 1.156
-169.00 0.948
-168.00 0.764
-167.00 0.578
-166.00 0.308
-165.00 0.127
-164.00 -0.094
-163.00 -0.469
-162.00 -0.766
-161.00 -1.115
-160.00 -1.450
-159.00 -1.876
-158.00 -2.335
-157.00 -2.732
-156.00 -3.262
-155.00 -3.616
-154.00 -4.207
-153.00 -4.916
-152.00 -5.334
-151.00 -5.926
-150.00 -6.736
-149.00 -7.428
-148.00 -8.358
-147.00 -9.061
-146.00 -10.408
-145.00 -11.242
-144.00 -11.811
-143.00 -13.295
-142.00 -14.333
-141.00 -15.502
-140.00 -17.047
-139.00 -17.934
-138.00 -18.242
-137.00 -18.681
-136.00 -18.486
-135.00 -18.362
-134.00 -17.686
-133.00 -17.473
-132.00 -16.345
-131.00 -15.689
-130.00 -15.292
-129.00 -14.856
-128.00 -14.963
-127.00 -14.561
-126.00 -14.581
-125.00 -13.887
-124.00 -14.133
-123.00 -13.816
-122.00 -13.860
-121.00 -13.879
-120.00 -13.650
-119.00 -14.048
-118.00 -13.771
-117.00 -13.659
-116.00 -13.984
-115.00 -13.937
-114.00 -13.921
-113.00 -14.047
-112.00 -14.460
-111.00 -14.281
-110.00 -14.921
-109.00 -14.331
-108.00 -14.497
-107.00 -14.957
-106.00 -15.079
-105.00 -15.022
-104.00 -14.857
-103.00 -15.456
-102.00 -15.383
-101.00 -15.920
-100.00 -15.814
-99.00 -15.601
-98.00 -15.683
-97.00 -15.949
-96.00 -15.653
-95.00 -15.848
-94.00 -16.422
-93.00 -16.011
-92.00 -16.596
-91.00 -16.549
-90.00 -16.833
-89.00 -16.235
-88.00 -16.366
-87.00 -16.434
-86.00 -16.334
-85.00 -16.020
-84.00 -15.588
-83.00 -15.783
-82.00 -15.764
-81.00 -14.910
-80.00 -14.688
-79.00 -14.727
-78.00 -14.114
-77.00 -14.238
-76.00 -13.845
-75.00 -14.011
-74.00 -14.057
-73.00 -13.560
-72.00 -13.521
-71.00 -13.605
-70.00 -13.452
-69.00 -13.334
-68.00 -13.214
-67.00 -13.021
-66.00 -12.841
-65.00 -12.740
-64.00 -12.503
-63.00 -12.325
-62.00 -12.309
-61.00 -12.048
-60.00 -11.850
-59.00 -11.651
-58.00 -11.647
-57.00 -11.432
-56.00 -11.159
-55.00 -11.177
-54.00 -10.856
-53.00 -10.580
-52.00 -10.204
-51.00 -10.188
-50.00 -9.774
-49.00 -9.459
-48.00 -9.240
-47.00 -9.121
-46.00 -8.863
-45.00 -8.497
-44.00 -8.547
-43.00 -8.259
-42.00 -8.258
-41.00 -7.789
-40.00 -7.623
-39.00 -7.556
-38.00 -7.550
-37.00 -7.392
-36.00 -7.253
-35.00 -7.086
-34.00 -6.975
-33.00 -6.998
-32.00 -7.135
-31.00 -7.002
-30.00 -6.787
-29.00 -6.859
-28.00 -6.809
-27.00 -6.843
-26.00 -6.949
-25.00 -6.928
-24.00 -6.950
-23.00 -6.993
-22.00 -6.924
-21.00 -7.040
-20.00 -7.084
-19.00 -7.083
-18.00 -7.107
-17.00 -7.105
-16.00 -7.196
-15.00 -7.371
-14.00 -7.389
-13.00 -7.485
-12.00 -7.395
-11.00 -7.425
-10.00 -7.399
-9.00 -7.680
-8.00 -7.615
-7.00 -7.695
-6.00 -7.951
-5.00 -8.014
-4.00 -7.923
-3.00 -8.190
-2.00 -8.216
-1.00 -8.117
0.00 -8.420
1.00 -8.295
2.00 -8.736
3.00 -8.496
4.00 -8.663
5.00 -8.757
6.00 -8.920
7.00 -8.958
8.00 -9.045
9.00 -8.797
10.00 -9.461
11.00 -9.071
12.00 -9.350
13.00 -9.289
14.00 -9.352
15.00 -9.480
16.00 -9.393
17.00 -9.570
18.00 -9.912
19.00 -9.528
20.00 -9.500
21.00 -9.806
22.00 -9.501
23.00 -9.509
24.00 -9.505
25.00 -9.430
26.00 -9.312
27.00 -9.391
28.00 -9.139
29.00 -9.258
30.00 -8.797
31.00 -8.843
32.00 -8.938
33.00 -8.855
34.00 -8.553
35.00 -8.595
36.00 -8.782
37.00 -8.666
38.00 -8.747
39.00 -8.514
40.00 -8.683
41.00 -8.497
42.00 -8.601
43.00 -8.585
44.00 -8.450
45.00 -8.597
46.00 -8.645
47.00 -8.506
48.00 -8.852
49.00 -8.780
50.00 -8.966
51.00 -8.961
52.00 -9.098
53.00 -9.273
54.00 -9.316
55.00 -9.537
56.00 -9.828
57.00 -10.175
58.00 -10.268
59.00 -10.579
60.00 -10.974
61.00 -11.312
62.00 -11.515
63.00 -12.317
64.00 -12.756
65.00 -12.795
66.00 -13.954
67.00 -14.347
68.00 -15.298
69.00 -16.191
70.00 -16.465
71.00 -17.228
72.00 -18.042
73.00 -18.799
74.00 -20.126
75.00 -20.971
76.00 -22.385
77.00 -22.782
78.00 -24.737
79.00 -25.648
80.00 -25.603
81.00 -27.429
82.00 -27.082
83.00 -26.531
84.00 -26.885
85.00 -28.797
86.00 -29.314
87.00 -28.748
88.00 -27.505
89.00 -25.287
90.00 -22.719
91.00 -21.110
92.00 -20.151
93.00 -18.287
94.00 -17.107
95.00 -15.222
96.00 -13.979
97.00 -13.098
98.00 -11.818
99.00 -11.199
100.00 -10.617
101.00 -9.694
102.00 -9.291
103.00 -8.702
104.00 -8.069
105.00 -7.696
106.00 -7.516
107.00 -7.129
108.00 -6.780
109.00 -6.601
110.00 -6.750
111.00 -6.566
112.00 -6.477
113.00 -6.708
114.00 -6.820
115.00 -6.885
116.00 -7.301
117.00 -7.682
118.00 -8.025
119.00 -8.283
120.00 -8.611
121.00 -9.397
122.00 -9.937
123.00 -10.645
124.00 -11.443
125.00 -12.783
126.00 -13.813
127.00 -14.775
128.00 -16.114
129.00 -17.319
130.00 -19.326
131.00 -20.293
132.00 -21.005
133.00 -20.130
134.00 -19.320
135.00 -16.612
136.00 -15.511
137.00 -14.182
138.00 -12.362
139.00 -11.429
140.00 -10.110
141.00 -9.158
142.00 -8.507
143.00 -7.769
144.00 -6.927
145.00 -6.246
146.00 -5.626
147.00 -5.105
148.00 -4.548
149.00 -4.004
150.00 -3.501
151.00 -3.143
152.00 -2.669
153.00 -2.253
154.00 -1.967
155.00 -1.679
156.00 -1.130
157.00 -0.938
158.00 -0.578
159.00 -0.333
160.00 -0.043
161.00 0.203
162.00 0.465
163.00 0.590
164.00 0.805
165.00 1.007
166.00 1.154
167.00 1.269
168.00 1.505
169.00 1.610
170.00 1.661
171.00 1.811
172.00 1.839
173.00 1.961
174.00 1.908
175.00 2.049
176.00 2.117
177.00 2.089
178.00 2.086
179.00 2.086
180.00 1.975
