Ant32 Data File V1.0
Date=21/03/2022
Time=09:45:38
Operator=Cyril
Title=irid
Remarks=Freq. = 1,622 GHz
ScanAxis=Theta
StepAxis=Phi : 0 deg
StepPosition=0
StepUnit=deg
FreqValue=1.622000
RecordIncrement=1
XyzImgAxis=0
XyzImgLabel=0
Abscissa=deg
Ordinate=dBi
Data#1
-180.00 3.241
-179.00 3.205
-178.00 3.160
-177.00 3.106
-176.00 2.997
-175.00 2.892
-174.00 2.758
-173.00 2.668
-172.00 2.539
-171.00 2.396
-170.00 2.174
-169.00 2.029
-168.00 1.847
-167.00 1.604
-166.00 1.324
-165.00 1.100
-164.00 0.783
-163.00 0.563
-162.00 0.265
-161.00 -0.023
-160.00 -0.401
-159.00 -0.686
-158.00 -1.122
-157.00 -1.475
-156.00 -1.873
-155.00 -2.276
-154.00 -2.896
-153.00 -3.384
-152.00 -3.696
-151.00 -4.187
-150.00 -4.798
-149.00 -5.225
-148.00 -5.810
-147.00 -6.356
-146.00 -6.907
-145.00 -7.427
-144.00 -7.790
-143.00 -8.070
-142.00 -8.643
-141.00 -9.045
-140.00 -9.186
-139.00 -9.256
-138.00 -9.476
-137.00 -9.349
-136.00 -9.428
-135.00 -9.731
-134.00 -9.640
-133.00 -9.597
-132.00 -9.492
-131.00 -9.681
-130.00 -9.499
-129.00 -9.825
-128.00 -9.720
-127.00 -10.023
-126.00 -10.269
-125.00 -10.489
-124.00 -10.733
-123.00 -11.006
-122.00 -11.024
-121.00 -11.381
-120.00 -11.673
-119.00 -12.095
-118.00 -12.486
-117.00 -12.707
-116.00 -12.866
-115.00 -13.341
-114.00 -12.832
-113.00 -13.028
-112.00 -12.857
-111.00 -13.017
-110.00 -12.460
-109.00 -12.845
-108.00 -12.192
-107.00 -12.366
-106.00 -12.253
-105.00 -11.963
-104.00 -11.690
-103.00 -11.601
-102.00 -11.071
-101.00 -11.148
-100.00 -11.577
-99.00 -11.381
-98.00 -11.361
-97.00 -11.609
-96.00 -11.748
-95.00 -11.718
-94.00 -11.990
-93.00 -12.307
-92.00 -12.571
-91.00 -12.801
-90.00 -13.264
-89.00 -14.153
-88.00 -14.909
-87.00 -15.024
-86.00 -15.474
-85.00 -16.229
-84.00 -17.047
-83.00 -17.004
-82.00 -16.813
-81.00 -17.361
-80.00 -17.163
-79.00 -16.514
-78.00 -16.072
-77.00 -14.753
-76.00 -14.416
-75.00 -13.779
-74.00 -13.336
-73.00 -12.917
-72.00 -12.280
-71.00 -11.914
-70.00 -11.382
-69.00 -10.950
-68.00 -10.703
-67.00 -10.373
-66.00 -10.204
-65.00 -10.051
-64.00 -9.645
-63.00 -9.661
-62.00 -9.760
-61.00 -9.667
-60.00 -9.425
-59.00 -9.777
-58.00 -9.878
-57.00 -9.916
-56.00 -10.336
-55.00 -10.221
-54.00 -10.503
-53.00 -10.793
-52.00 -10.960
-51.00 -11.050
-50.00 -11.605
-49.00 -12.101
-48.00 -12.002
-47.00 -12.984
-46.00 -12.720
-45.00 -13.528
-44.00 -14.119
-43.00 -14.144
-42.00 -14.370
-41.00 -15.235
-40.00 -15.187
-39.00 -15.452
-38.00 -16.003
-37.00 -15.921
-36.00 -15.866
-35.00 -15.554
-34.00 -15.159
-33.00 -15.016
-32.00 -14.819
-31.00 -14.480
-30.00 -14.270
-29.00 -14.057
-28.00 -13.783
-27.00 -13.136
-26.00 -13.339
-25.00 -12.541
-24.00 -12.485
-23.00 -12.154
-22.00 -12.372
-21.00 -11.959
-20.00 -11.671
-19.00 -11.741
-18.00 -11.387
-17.00 -11.266
-16.00 -11.066
-15.00 -10.973
-14.00 -10.857
-13.00 -11.024
-12.00 -10.595
-11.00 -10.772
-10.00 -10.688
-9.00 -10.841
-8.00 -10.712
-7.00 -10.515
-6.00 -10.919
-5.00 -10.527
-4.00 -10.583
-3.00 -10.722
-2.00 -10.935
-1.00 -10.794
0.00 -11.036
1.00 -11.272
2.00 -11.171
3.00 -11.211
4.00 -11.210
5.00 -11.544
6.00 -11.625
7.00 -11.639
8.00 -11.570
9.00 -11.836
10.00 -12.198
11.00 -12.207
12.00 -12.297
13.00 -12.597
14.00 -12.787
15.00 -12.988
16.00 -12.954
17.00 -13.117
18.00 -13.349
19.00 -13.520
20.00 -13.736
21.00 -13.624
22.00 -13.700
23.00 -14.157
24.00 -14.355
25.00 -14.495
26.00 -14.819
27.00 -14.673
28.00 -15.176
29.00 -15.364
30.00 -15.539
31.00 -16.292
32.00 -16.051
33.00 -16.035
34.00 -16.349
35.00 -16.600
36.00 -16.947
37.00 -17.133
38.00 -17.559
39.00 -17.346
40.00 -17.398
41.00 -17.025
42.00 -17.481
43.00 -17.815
44.00 -17.844
45.00 -17.828
46.00 -17.977
47.00 -18.742
48.00 -18.582
49.00 -19.469
50.00 -19.578
51.00 -20.025
52.00 -20.328
53.00 -19.829
54.00 -21.808
55.00 -22.876
56.00 -22.498
57.00 -25.427
58.00 -24.378
59.00 -25.678
60.00 -27.006
61.00 -25.865
62.00 -25.204
63.00 -25.047
64.00 -21.949
65.00 -20.784
66.00 -19.878
67.00 -18.373
68.00 -17.406
69.00 -16.136
70.00 -15.337
71.00 -14.373
72.00 -13.728
73.00 -12.893
74.00 -12.542
75.00 -12.224
76.00 -11.223
77.00 -11.086
78.00 -10.512
79.00 -10.339
80.00 -10.061
81.00 -9.679
82.00 -9.136
83.00 -9.336
84.00 -9.225
85.00 -9.152
86.00 -8.816
87.00 -8.809
88.00 -8.861
89.00 -8.881
90.00 -8.544
91.00 -8.668
92.00 -8.531
93.00 -8.253
94.00 -8.036
95.00 -8.092
96.00 -7.695
97.00 -7.559
98.00 -7.134
99.00 -6.967
100.00 -6.588
101.00 -6.106
102.00 -5.918
103.00 -5.650
104.00 -5.171
105.00 -4.907
106.00 -4.525
107.00 -4.259
108.00 -4.041
109.00 -3.660
110.00 -3.367
111.00 -3.292
112.00 -3.010
113.00 -2.805
114.00 -2.705
115.00 -2.572
116.00 -2.494
117.00 -2.363
118.00 -2.502
119.00 -2.413
120.00 -2.427
121.00 -2.515
122.00 -2.635
123.00 -2.783
124.00 -2.951
125.00 -3.059
126.00 -3.367
127.00 -3.577
128.00 -3.949
129.00 -4.334
130.00 -4.678
131.00 -5.012
132.00 -5.539
133.00 -5.965
134.00 -6.695
135.00 -7.028
136.00 -7.511
137.00 -7.938
138.00 -8.220
139.00 -8.582
140.00 -8.402
141.00 -8.166
142.00 -7.750
143.00 -7.331
144.00 -6.748
145.00 -5.938
146.00 -5.347
147.00 -4.667
148.00 -4.048
149.00 -3.395
150.00 -3.034
151.00 -2.360
152.00 -1.769
153.00 -1.297
154.00 -0.870
155.00 -0.427
156.00 -0.079
157.00 0.339
158.00 0.627
159.00 0.923
160.00 1.221
161.00 1.490
162.00 1.762
163.00 1.938
164.00 2.224
165.00 2.379
166.00 2.563
167.00 2.656
168.00 2.853
169.00 2.939
170.00 3.012
171.00 3.144
172.00 3.172
173.00 3.249
174.00 3.223
175.00 3.290
176.00 3.308
177.00 3.356
178.00 3.312
179.00 3.254
180.00 3.258
