Ant32 Data File V1.0
Date=21/03/2022
Time=09:45:38
Operator=Cyril
Title=irid
Remarks=Freq. = 1,615 GHz
ScanAxis=Theta
StepAxis=Phi : 0 deg
StepPosition=0
StepUnit=deg
FreqValue=1.615000
RecordIncrement=1
XyzImgAxis=0
XyzImgLabel=0
Abscissa=deg
Ordinate=dBi
Data#1
-180.00 2.915
-179.00 2.881
-178.00 2.785
-177.00 2.717
-176.00 2.663
-175.00 2.609
-174.00 2.422
-173.00 2.361
-172.00 2.272
-171.00 2.066
-170.00 1.875
-169.00 1.799
-168.00 1.535
-167.00 1.260
-166.00 1.146
-165.00 0.933
-164.00 0.687
-163.00 0.393
-162.00 0.164
-161.00 -0.167
-160.00 -0.374
-159.00 -0.709
-158.00 -1.134
-157.00 -1.389
-156.00 -1.734
-155.00 -2.181
-154.00 -2.541
-153.00 -2.853
-152.00 -3.423
-151.00 -3.831
-150.00 -4.213
-149.00 -4.638
-148.00 -5.009
-147.00 -5.461
-146.00 -5.823
-145.00 -6.095
-144.00 -6.469
-143.00 -6.660
-142.00 -6.969
-141.00 -7.307
-140.00 -7.494
-139.00 -7.631
-138.00 -7.828
-137.00 -8.115
-136.00 -8.214
-135.00 -8.251
-134.00 -8.402
-133.00 -8.645
-132.00 -8.787
-131.00 -9.045
-130.00 -9.099
-129.00 -9.505
-128.00 -9.810
-127.00 -10.130
-126.00 -10.351
-125.00 -11.227
-124.00 -11.009
-123.00 -12.017
-122.00 -12.458
-121.00 -13.330
-120.00 -13.558
-119.00 -14.052
-118.00 -15.201
-117.00 -16.021
-116.00 -16.725
-115.00 -17.675
-114.00 -18.475
-113.00 -20.166
-112.00 -20.284
-111.00 -20.754
-110.00 -20.279
-109.00 -20.449
-108.00 -19.837
-107.00 -19.474
-106.00 -19.384
-105.00 -18.062
-104.00 -18.196
-103.00 -17.297
-102.00 -16.767
-101.00 -16.264
-100.00 -16.012
-99.00 -16.247
-98.00 -16.388
-97.00 -15.672
-96.00 -15.357
-95.00 -15.661
-94.00 -15.187
-93.00 -15.456
-92.00 -15.166
-91.00 -15.113
-90.00 -15.172
-89.00 -15.156
-88.00 -14.803
-87.00 -14.887
-86.00 -14.873
-85.00 -14.633
-84.00 -14.395
-83.00 -14.176
-82.00 -14.183
-81.00 -13.999
-80.00 -13.554
-79.00 -13.302
-78.00 -13.651
-77.00 -13.738
-76.00 -13.164
-75.00 -13.504
-74.00 -13.708
-73.00 -13.623
-72.00 -14.019
-71.00 -13.836
-70.00 -14.401
-69.00 -14.827
-68.00 -14.846
-67.00 -15.523
-66.00 -15.889
-65.00 -16.675
-64.00 -17.107
-63.00 -18.296
-62.00 -19.443
-61.00 -20.229
-60.00 -21.905
-59.00 -22.924
-58.00 -23.829
-57.00 -24.319
-56.00 -23.561
-55.00 -22.840
-54.00 -21.284
-53.00 -19.799
-52.00 -18.314
-51.00 -17.391
-50.00 -16.041
-49.00 -14.716
-48.00 -14.376
-47.00 -13.008
-46.00 -13.051
-45.00 -12.040
-44.00 -11.674
-43.00 -10.922
-42.00 -10.557
-41.00 -10.108
-40.00 -9.666
-39.00 -9.144
-38.00 -9.110
-37.00 -8.744
-36.00 -8.538
-35.00 -8.258
-34.00 -7.957
-33.00 -7.591
-32.00 -7.780
-31.00 -7.416
-30.00 -7.508
-29.00 -7.385
-28.00 -7.140
-27.00 -7.035
-26.00 -6.968
-25.00 -7.048
-24.00 -7.124
-23.00 -6.941
-22.00 -7.002
-21.00 -7.061
-20.00 -6.913
-19.00 -7.119
-18.00 -7.076
-17.00 -7.043
-16.00 -7.198
-15.00 -7.447
-14.00 -7.532
-13.00 -7.511
-12.00 -7.546
-11.00 -7.547
-10.00 -7.487
-9.00 -7.621
-8.00 -7.716
-7.00 -7.929
-6.00 -8.093
-5.00 -7.887
-4.00 -7.960
-3.00 -7.987
-2.00 -8.211
-1.00 -8.111
0.00 -8.042
1.00 -8.199
2.00 -8.249
3.00 -8.233
4.00 -8.272
5.00 -8.355
6.00 -8.522
7.00 -8.530
8.00 -8.617
9.00 -8.697
10.00 -8.897
11.00 -8.598
12.00 -8.747
13.00 -8.790
14.00 -8.677
15.00 -8.882
16.00 -9.078
17.00 -8.913
18.00 -8.799
19.00 -8.931
20.00 -8.826
21.00 -8.943
22.00 -8.987
23.00 -9.065
24.00 -9.006
25.00 -8.619
26.00 -8.803
27.00 -8.796
28.00 -8.968
29.00 -9.012
30.00 -8.897
31.00 -8.888
32.00 -8.929
33.00 -8.958
34.00 -9.022
35.00 -9.109
36.00 -9.095
37.00 -8.839
38.00 -8.917
39.00 -8.906
40.00 -8.981
41.00 -9.108
42.00 -8.988
43.00 -9.015
44.00 -9.258
45.00 -9.054
46.00 -9.167
47.00 -9.257
48.00 -8.995
49.00 -8.827
50.00 -8.907
51.00 -8.835
52.00 -8.686
53.00 -8.637
54.00 -8.593
55.00 -8.388
56.00 -8.281
57.00 -8.268
58.00 -7.971
59.00 -8.031
60.00 -7.889
61.00 -7.676
62.00 -7.677
63.00 -7.696
64.00 -7.662
65.00 -7.335
66.00 -7.323
67.00 -7.232
68.00 -7.316
69.00 -7.331
70.00 -7.255
71.00 -7.362
72.00 -7.308
73.00 -7.178
74.00 -7.195
75.00 -7.244
76.00 -7.450
77.00 -7.459
78.00 -7.539
79.00 -7.538
80.00 -7.418
81.00 -7.416
82.00 -7.636
83.00 -7.819
84.00 -7.678
85.00 -7.703
86.00 -7.790
87.00 -7.788
88.00 -7.707
89.00 -7.614
90.00 -7.756
91.00 -7.373
92.00 -7.172
93.00 -6.980
94.00 -6.856
95.00 -6.695
96.00 -6.413
97.00 -6.292
98.00 -5.921
99.00 -5.716
100.00 -5.496
101.00 -5.237
102.00 -4.951
103.00 -4.681
104.00 -4.434
105.00 -4.236
106.00 -3.966
107.00 -3.762
108.00 -3.542
109.00 -3.408
110.00 -3.236
111.00 -3.201
112.00 -2.997
113.00 -3.065
114.00 -2.972
115.00 -2.801
116.00 -2.844
117.00 -2.777
118.00 -2.776
119.00 -2.838
120.00 -2.893
121.00 -3.031
122.00 -3.153
123.00 -3.384
124.00 -3.420
125.00 -3.586
126.00 -3.916
127.00 -4.231
128.00 -4.573
129.00 -4.792
130.00 -5.166
131.00 -5.544
132.00 -5.918
133.00 -6.492
134.00 -6.784
135.00 -7.108
136.00 -7.407
137.00 -7.670
138.00 -7.697
139.00 -7.653
140.00 -7.594
141.00 -7.335
142.00 -6.929
143.00 -6.529
144.00 -5.837
145.00 -5.387
146.00 -4.926
147.00 -4.260
148.00 -3.832
149.00 -3.150
150.00 -2.630
151.00 -2.094
152.00 -1.565
153.00 -1.221
154.00 -0.846
155.00 -0.435
156.00 -0.061
157.00 0.308
158.00 0.526
159.00 0.803
160.00 1.150
161.00 1.352
162.00 1.593
163.00 1.837
164.00 2.017
165.00 2.160
166.00 2.251
167.00 2.470
168.00 2.568
169.00 2.615
170.00 2.751
171.00 2.878
172.00 2.903
173.00 2.915
174.00 2.999
175.00 3.026
176.00 3.064
177.00 3.057
178.00 3.044
179.00 2.990
180.00 2.969
