Ant32 Data File V1.0
Date=21/03/2022
Time=09:45:38
Operator=Cyril
Title=irid
Remarks=Freq. = 1,625 GHz
ScanAxis=Theta
StepAxis=Phi : 0 deg
StepPosition=0
StepUnit=deg
FreqValue=1.625000
RecordIncrement=1
XyzImgAxis=0
XyzImgLabel=0
Abscissa=deg
Ordinate=dBi
Data#1
-180.00 2.809
-179.00 2.744
-178.00 2.733
-177.00 2.661
-176.00 2.511
-175.00 2.404
-174.00 2.325
-173.00 2.149
-172.00 2.054
-171.00 1.929
-170.00 1.784
-169.00 1.573
-168.00 1.330
-167.00 1.104
-166.00 0.917
-165.00 0.604
-164.00 0.382
-163.00 0.122
-162.00 -0.194
-161.00 -0.552
-160.00 -0.915
-159.00 -1.257
-158.00 -1.704
-157.00 -2.113
-156.00 -2.571
-155.00 -2.967
-154.00 -3.393
-153.00 -3.890
-152.00 -4.538
-151.00 -4.913
-150.00 -5.646
-149.00 -6.108
-148.00 -6.706
-147.00 -7.152
-146.00 -7.760
-145.00 -8.199
-144.00 -8.601
-143.00 -9.165
-142.00 -9.303
-141.00 -9.606
-140.00 -9.882
-139.00 -9.694
-138.00 -9.845
-137.00 -9.671
-136.00 -9.471
-135.00 -9.403
-134.00 -9.188
-133.00 -8.987
-132.00 -8.771
-131.00 -8.642
-130.00 -8.628
-129.00 -8.543
-128.00 -8.632
-127.00 -8.604
-126.00 -8.919
-125.00 -9.041
-124.00 -8.987
-123.00 -9.310
-122.00 -9.324
-121.00 -9.552
-120.00 -9.620
-119.00 -9.906
-118.00 -10.081
-117.00 -10.701
-116.00 -10.560
-115.00 -10.499
-114.00 -10.566
-113.00 -11.120
-112.00 -10.968
-111.00 -10.854
-110.00 -10.987
-109.00 -11.075
-108.00 -10.853
-107.00 -10.665
-106.00 -10.533
-105.00 -10.471
-104.00 -10.042
-103.00 -9.867
-102.00 -9.860
-101.00 -9.668
-100.00 -9.478
-99.00 -9.472
-98.00 -9.312
-97.00 -9.254
-96.00 -9.243
-95.00 -9.344
-94.00 -9.400
-93.00 -9.313
-92.00 -9.337
-91.00 -9.611
-90.00 -9.898
-89.00 -10.090
-88.00 -10.330
-87.00 -10.578
-86.00 -10.760
-85.00 -11.005
-84.00 -11.583
-83.00 -11.838
-82.00 -11.999
-81.00 -12.378
-80.00 -12.154
-79.00 -12.244
-78.00 -12.305
-77.00 -12.000
-76.00 -12.301
-75.00 -12.118
-74.00 -11.614
-73.00 -11.338
-72.00 -10.943
-71.00 -10.455
-70.00 -10.341
-69.00 -9.815
-68.00 -9.371
-67.00 -8.971
-66.00 -8.926
-65.00 -8.769
-64.00 -8.633
-63.00 -8.471
-62.00 -8.023
-61.00 -7.909
-60.00 -7.943
-59.00 -7.840
-58.00 -7.529
-57.00 -7.579
-56.00 -7.744
-55.00 -7.706
-54.00 -7.828
-53.00 -7.505
-52.00 -7.756
-51.00 -7.867
-50.00 -8.106
-49.00 -8.066
-48.00 -8.457
-47.00 -8.525
-46.00 -8.743
-45.00 -8.849
-44.00 -8.880
-43.00 -8.960
-42.00 -9.049
-41.00 -9.475
-40.00 -9.759
-39.00 -9.920
-38.00 -10.000
-37.00 -10.277
-36.00 -10.387
-35.00 -10.548
-34.00 -10.721
-33.00 -10.663
-32.00 -10.781
-31.00 -10.744
-30.00 -10.701
-29.00 -10.803
-28.00 -10.848
-27.00 -10.948
-26.00 -10.789
-25.00 -10.819
-24.00 -10.647
-23.00 -10.601
-22.00 -10.190
-21.00 -10.693
-20.00 -10.293
-19.00 -10.164
-18.00 -10.208
-17.00 -9.937
-16.00 -10.018
-15.00 -9.933
-14.00 -9.889
-13.00 -10.055
-12.00 -9.863
-11.00 -9.675
-10.00 -9.445
-9.00 -9.505
-8.00 -9.453
-7.00 -9.415
-6.00 -9.642
-5.00 -9.547
-4.00 -9.418
-3.00 -9.544
-2.00 -9.486
-1.00 -9.426
0.00 -9.496
1.00 -9.422
2.00 -9.664
3.00 -9.477
4.00 -9.364
5.00 -9.730
6.00 -9.807
7.00 -9.736
8.00 -9.824
9.00 -9.750
10.00 -9.935
11.00 -9.963
12.00 -10.024
13.00 -10.064
14.00 -10.110
15.00 -10.167
16.00 -10.368
17.00 -10.091
18.00 -10.557
19.00 -10.633
20.00 -10.348
21.00 -10.418
22.00 -10.659
23.00 -10.552
24.00 -10.311
25.00 -10.735
26.00 -10.459
27.00 -10.699
28.00 -10.497
29.00 -10.872
30.00 -10.734
31.00 -10.985
32.00 -10.847
33.00 -11.023
34.00 -10.741
35.00 -10.682
36.00 -10.899
37.00 -10.818
38.00 -11.147
39.00 -10.962
40.00 -11.110
41.00 -11.075
42.00 -11.079
43.00 -10.926
44.00 -11.184
45.00 -11.354
46.00 -11.164
47.00 -11.527
48.00 -11.201
49.00 -11.598
50.00 -11.437
51.00 -11.332
52.00 -11.999
53.00 -11.815
54.00 -12.252
55.00 -12.212
56.00 -12.427
57.00 -12.795
58.00 -12.588
59.00 -12.797
60.00 -13.024
61.00 -12.937
62.00 -12.723
63.00 -13.262
64.00 -13.066
65.00 -12.994
66.00 -12.843
67.00 -12.503
68.00 -12.311
69.00 -11.838
70.00 -11.441
71.00 -11.118
72.00 -10.687
73.00 -10.207
74.00 -9.987
75.00 -9.504
76.00 -9.334
77.00 -8.943
78.00 -8.599
79.00 -8.421
80.00 -8.115
81.00 -7.891
82.00 -7.743
83.00 -7.456
84.00 -7.391
85.00 -7.239
86.00 -7.317
87.00 -7.187
88.00 -6.949
89.00 -7.037
90.00 -6.955
91.00 -7.080
92.00 -6.979
93.00 -6.679
94.00 -6.828
95.00 -6.823
96.00 -6.454
97.00 -6.322
98.00 -6.142
99.00 -6.058
100.00 -5.784
101.00 -5.468
102.00 -5.312
103.00 -4.851
104.00 -4.643
105.00 -4.395
106.00 -4.149
107.00 -3.725
108.00 -3.551
109.00 -3.323
110.00 -3.199
111.00 -2.882
112.00 -2.747
113.00 -2.589
114.00 -2.450
115.00 -2.413
116.00 -2.296
117.00 -2.302
118.00 -2.272
119.00 -2.224
120.00 -2.235
121.00 -2.456
122.00 -2.483
123.00 -2.688
124.00 -2.804
125.00 -3.012
126.00 -3.237
127.00 -3.443
128.00 -3.853
129.00 -4.020
130.00 -4.419
131.00 -5.059
132.00 -5.364
133.00 -5.825
134.00 -6.464
135.00 -6.968
136.00 -7.631
137.00 -8.029
138.00 -8.250
139.00 -8.394
140.00 -8.602
141.00 -8.665
142.00 -8.259
143.00 -7.594
144.00 -7.184
145.00 -6.535
146.00 -5.884
147.00 -5.173
148.00 -4.639
149.00 -4.031
150.00 -3.343
151.00 -2.769
152.00 -2.283
153.00 -1.839
154.00 -1.313
155.00 -0.921
156.00 -0.562
157.00 -0.154
158.00 0.162
159.00 0.474
160.00 0.778
161.00 1.091
162.00 1.305
163.00 1.509
164.00 1.735
165.00 1.953
166.00 2.114
167.00 2.252
168.00 2.328
169.00 2.510
170.00 2.590
171.00 2.675
172.00 2.757
173.00 2.814
174.00 2.795
175.00 2.877
176.00 2.889
177.00 2.868
178.00 2.929
179.00 2.879
180.00 2.793
