Ant32 Data File V1.0
Date=21/03/2022
Time=09:49:05
Operator=Cyril
Title=irid
Remarks=Freq. = 1,612 GHz
ScanAxis=Theta
StepAxis=Phi : 90 deg
StepPosition=90
StepUnit=deg
FreqValue=1.612000
RecordIncrement=1
XyzImgAxis=0
XyzImgLabel=0
Abscissa=deg
Ordinate=dBi
Data#1
-180.00 2.256
-179.00 2.213
-178.00 2.204
-177.00 2.106
-176.00 2.049
-175.00 1.910
-174.00 1.823
-173.00 1.717
-172.00 1.500
-171.00 1.408
-170.00 1.244
-169.00 1.071
-168.00 0.836
-167.00 0.659
-166.00 0.393
-165.00 0.086
-164.00 -0.091
-163.00 -0.420
-162.00 -0.717
-161.00 -1.085
-160.00 -1.378
-159.00 -1.856
-158.00 -2.221
-157.00 -2.594
-156.00 -3.148
-155.00 -3.816
-154.00 -4.383
-153.00 -4.978
-152.00 -5.659
-151.00 -6.436
-150.00 -7.253
-149.00 -8.055
-148.00 -8.864
-147.00 -9.974
-146.00 -10.946
-145.00 -12.128
-144.00 -13.368
-143.00 -14.264
-142.00 -14.835
-141.00 -16.053
-140.00 -16.030
-139.00 -15.424
-138.00 -15.160
-137.00 -14.653
-136.00 -13.264
-135.00 -12.951
-134.00 -12.215
-133.00 -11.622
-132.00 -10.966
-131.00 -10.562
-130.00 -10.234
-129.00 -9.961
-128.00 -9.514
-127.00 -9.333
-126.00 -9.137
-125.00 -9.103
-124.00 -9.274
-123.00 -9.054
-122.00 -9.188
-121.00 -9.066
-120.00 -9.314
-119.00 -9.386
-118.00 -9.569
-117.00 -9.937
-116.00 -10.077
-115.00 -10.274
-114.00 -10.601
-113.00 -10.838
-112.00 -11.169
-111.00 -11.600
-110.00 -11.783
-109.00 -11.734
-108.00 -12.260
-107.00 -12.044
-106.00 -12.024
-105.00 -12.117
-104.00 -12.015
-103.00 -11.485
-102.00 -11.150
-101.00 -11.082
-100.00 -10.769
-99.00 -10.470
-98.00 -10.355
-97.00 -9.925
-96.00 -9.511
-95.00 -9.318
-94.00 -9.287
-93.00 -9.157
-92.00 -8.815
-91.00 -9.004
-90.00 -9.073
-89.00 -9.002
-88.00 -8.957
-87.00 -9.338
-86.00 -9.139
-85.00 -9.419
-84.00 -9.483
-83.00 -9.892
-82.00 -10.262
-81.00 -10.290
-80.00 -10.256
-79.00 -10.876
-78.00 -11.134
-77.00 -11.137
-76.00 -11.866
-75.00 -11.695
-74.00 -12.175
-73.00 -11.835
-72.00 -11.984
-71.00 -12.028
-70.00 -11.815
-69.00 -11.673
-68.00 -11.467
-67.00 -10.867
-66.00 -10.870
-65.00 -10.701
-64.00 -10.193
-63.00 -9.875
-62.00 -9.729
-61.00 -9.604
-60.00 -9.017
-59.00 -8.787
-58.00 -8.538
-57.00 -8.349
-56.00 -8.103
-55.00 -8.160
-54.00 -8.066
-53.00 -7.894
-52.00 -7.840
-51.00 -7.628
-50.00 -7.724
-49.00 -7.560
-48.00 -7.519
-47.00 -7.567
-46.00 -7.637
-45.00 -7.663
-44.00 -7.633
-43.00 -7.753
-42.00 -7.840
-41.00 -7.770
-40.00 -7.894
-39.00 -7.990
-38.00 -8.056
-37.00 -8.263
-36.00 -8.367
-35.00 -8.217
-34.00 -8.450
-33.00 -8.574
-32.00 -8.669
-31.00 -8.553
-30.00 -8.805
-29.00 -8.749
-28.00 -8.770
-27.00 -9.212
-26.00 -9.095
-25.00 -9.132
-24.00 -9.432
-23.00 -9.389
-22.00 -9.216
-21.00 -9.358
-20.00 -9.387
-19.00 -9.382
-18.00 -9.515
-17.00 -9.602
-16.00 -9.362
-15.00 -9.463
-14.00 -9.710
-13.00 -9.399
-12.00 -9.481
-11.00 -9.574
-10.00 -9.358
-9.00 -9.226
-8.00 -9.319
-7.00 -8.837
-6.00 -9.016
-5.00 -8.997
-4.00 -8.888
-3.00 -8.885
-2.00 -8.760
-1.00 -8.710
0.00 -8.565
1.00 -8.539
2.00 -8.466
3.00 -8.389
4.00 -8.282
5.00 -8.261
6.00 -7.994
7.00 -7.938
8.00 -8.123
9.00 -7.975
10.00 -7.927
11.00 -7.833
12.00 -7.568
13.00 -7.598
14.00 -7.542
15.00 -7.505
16.00 -7.311
17.00 -7.129
18.00 -7.152
19.00 -7.060
20.00 -6.916
21.00 -6.695
22.00 -6.667
23.00 -6.655
24.00 -6.479
25.00 -6.484
26.00 -6.513
27.00 -6.626
28.00 -6.329
29.00 -6.383
30.00 -6.207
31.00 -6.455
32.00 -6.194
33.00 -6.212
34.00 -6.111
35.00 -6.232
36.00 -6.323
37.00 -6.219
38.00 -6.328
39.00 -6.226
40.00 -6.079
41.00 -6.196
42.00 -6.411
43.00 -6.366
44.00 -6.497
45.00 -6.481
46.00 -6.481
47.00 -6.582
48.00 -6.801
49.00 -6.836
50.00 -7.019
51.00 -6.810
52.00 -7.059
53.00 -7.044
54.00 -7.066
55.00 -7.077
56.00 -7.154
57.00 -7.074
58.00 -7.046
59.00 -6.901
60.00 -6.928
61.00 -6.629
62.00 -6.736
63.00 -6.373
64.00 -6.266
65.00 -5.919
66.00 -5.924
67.00 -5.662
68.00 -5.403
69.00 -5.211
70.00 -4.852
71.00 -4.753
72.00 -4.751
73.00 -4.614
74.00 -4.525
75.00 -4.395
76.00 -4.409
77.00 -4.274
78.00 -4.231
79.00 -4.184
80.00 -4.354
81.00 -4.451
82.00 -4.482
83.00 -4.770
84.00 -4.958
85.00 -4.963
86.00 -5.388
87.00 -5.595
88.00 -5.649
89.00 -5.832
90.00 -6.335
91.00 -6.532
92.00 -6.614
93.00 -6.705
94.00 -6.844
95.00 -6.792
96.00 -6.742
97.00 -6.545
98.00 -6.449
99.00 -6.128
100.00 -5.791
101.00 -5.355
102.00 -4.948
103.00 -4.524
104.00 -4.254
105.00 -3.786
106.00 -3.448
107.00 -3.199
108.00 -2.834
109.00 -2.635
110.00 -2.428
111.00 -2.349
112.00 -2.194
113.00 -2.235
114.00 -2.136
115.00 -2.092
116.00 -2.159
117.00 -2.220
118.00 -2.379
119.00 -2.538
120.00 -2.706
121.00 -3.098
122.00 -3.324
123.00 -3.576
124.00 -4.026
125.00 -4.559
126.00 -4.962
127.00 -5.491
128.00 -6.161
129.00 -6.981
130.00 -7.933
131.00 -8.722
132.00 -9.758
133.00 -11.113
134.00 -12.364
135.00 -13.357
136.00 -15.165
137.00 -16.846
138.00 -17.220
139.00 -16.578
140.00 -14.835
141.00 -13.562
142.00 -12.051
143.00 -10.606
144.00 -9.282
145.00 -8.152
146.00 -7.172
147.00 -6.362
148.00 -5.552
149.00 -4.758
150.00 -4.170
151.00 -3.509
152.00 -2.962
153.00 -2.458
154.00 -1.979
155.00 -1.536
156.00 -1.160
157.00 -0.809
158.00 -0.492
159.00 -0.124
160.00 0.192
161.00 0.475
162.00 0.689
163.00 0.858
164.00 1.047
165.00 1.281
166.00 1.439
167.00 1.534
168.00 1.735
169.00 1.897
170.00 1.949
171.00 1.978
172.00 2.071
173.00 2.150
174.00 2.207
175.00 2.334
176.00 2.299
177.00 2.274
178.00 2.231
179.00 2.353
180.00 2.264
